Time,20-3 - Temperature,17-2 - Temperature,61-3 - Temperature,53-3 - Temperature,53-3 - Pressure,69 - Temperature,69 - Pressure,81 - Temperature,81 - Pressure,5-2 - Mass Flow,108 - Mass Flow,89-2 - Mass Flow,1 - Temperature,1 - Mass Flow,LIC506 - PV,LIC502 - PV,81 - Mass Flow,86 - Temperature,71-2 - Temperature,67 - Mass Flow,34-2 - Temperature,34-2 - Pressure,34-2 - Mass Flow,LIC508 - OP
[seconds],[C],[C],[C],[C],[kPa],[C],[kPa],[C],[kPa],[kg/h],[kg/h],[kg/h],[C],[kg/h],[%],[%],[kg/h],[C],[C],[kg/h],[C],[kPa],[kg/h],[%]
369931,4.11848,-8.69745,-0.48313,-32.9991,101.3,106.582,537.946,112.739,1043.71,292.778,10658.9,7837.1,59.66,0,10.3444,51.2067,10696.1,14.3656,11.4852,85211.5,158.191,101.3,1.70E-31,0.608905
369941,4.02296,-8.71943,-0.480695,-32.9991,101.3,106.621,537.745,112.76,1043.72,301.294,10643.2,7824.7,59.66,0,10.3462,51.1863,10684.9,14.3398,11.4719,85742.7,158.191,101.3,1.70E-31,0.610728
369951,3.44933,-8.66838,-0.37968,-32.9991,101.3,106.606,537.778,112.745,1043.75,309.804,10627.8,7812.58,59.66,0,10.3476,51.1617,10688.7,14.3159,11.4571,86951.5,158.191,101.3,1.69E-31,0.612529
369961,2.34114,-8.49885,-0.198644,-32.9991,101.3,106.538,538.149,112.672,1043.78,318.13,10614.7,7802.74,59.66,0,10.3482,51.1242,10712.2,14.2923,11.444,88117.5,158.191,101.3,1.67E-31,0.615909
369971,0.988968,-8.29081,-0.0231198,-32.9991,101.3,106.477,538.665,112.599,1043.91,325.436,10607.5,7798.48,59.66,0,10.3472,51.0657,10740.4,14.2703,11.4345,88904.6,158.191,101.3,1.65E-31,0.621423
369981,-0.353885,-8.10441,0.101013,-32.9991,101.3,106.44,539.128,112.554,1044.05,332.366,10607.5,7800.96,59.66,0,10.3434,50.9833,10763.1,14.2521,11.4303,89137.4,158.191,101.3,1.63E-31,0.6301
369991,-1.50299,-7.96596,0.15479,-32.9991,101.3,106.463,539.294,112.558,1044.17,339.255,10613.6,7808.98,59.66,0,10.3364,50.8844,10767.1,14.239,11.4315,89016.6,158.191,101.3,1.60E-31,0.641253
370001,-2.36852,-7.8777,0.144328,-32.9991,101.3,106.525,539.169,112.613,1044.26,345.988,10623.1,7819.78,59.66,0,10.326,50.7813,10754.9,14.2315,11.4432,88600.4,158.191,101.3,1.57E-31,0.654048
370011,-2.99142,-7.83222,0.08469,-32.9991,101.3,106.623,538.732,112.704,1044.27,353.058,10632.7,7830.2,59.66,0,10.3132,50.6856,10726.8,14.2292,11.4627,88030.1,158.191,101.3,1.55E-31,0.667703
370021,-3.41356,-7.8147,-0.00501627,-32.9991,101.3,106.74,538.099,112.814,1044.29,360.035,10640.5,7838.28,59.66,0,10.2986,50.606,10688.8,14.2304,11.4883,87384.1,158.191,101.3,1.52E-31,0.68192
370031,-3.7023,-7.8195,-0.109173,-32.9991,101.3,106.871,537.315,112.926,1044.31,367.195,10644.8,7842.75,59.66,0,10.2833,50.5459,10643.1,14.2338,11.5237,86718,158.191,101.3,1.49E-31,0.696511
370041,-3.8954,-7.84031,-0.220675,-32.9991,101.3,107,536.432,113.038,1044.22,375.165,10644.1,7842.03,59.66,0,10.2679,50.5081,10595.2,14.2388,11.5677,86073.8,158.191,101.3,1.47E-31,0.71134
370051,-4.02761,-7.86965,-0.337308,-32.9991,101.3,107.136,535.481,113.146,1044.12,383.252,10638.4,7836.37,59.66,0,10.2531,50.4923,10544.1,14.2441,11.6183,85449.7,158.191,101.3,1.45E-31,0.72634
370061,-4.12076,-7.9096,-0.449962,-32.9991,101.3,107.268,534.544,113.25,1044.04,391.474,10627.9,7825.89,59.66,0,10.2394,50.4969,10494.2,14.2483,11.6759,84887.2,158.191,101.3,1.42E-31,0.741463
370071,-4.18824,-7.95479,-0.56305,-32.9991,101.3,107.4,533.589,113.345,1043.93,400.083,10612.4,7810.58,59.66,0,10.2271,50.5199,10444.1,14.2516,11.7398,84377.3,158.191,101.3,1.40E-31,0.756658
370081,-4.23619,-8.00505,-0.672264,-32.9991,101.3,107.531,532.635,113.441,1043.79,409.229,10592.3,7790.8,59.66,0,10.2163,50.5586,10395,14.2535,11.8099,83904.9,158.191,101.3,1.38E-31,0.771915
370091,-4.27817,-8.06162,-0.774187,-32.9991,101.3,107.658,531.704,113.525,1043.65,418.748,10568,7767.06,59.66,0,10.2074,50.6105,10347,14.2537,11.8859,83497.6,158.191,101.3,1.36E-31,0.787108
370101,-4.30485,-8.12096,-0.870146,-32.9991,101.3,107.779,530.817,113.603,1043.53,428.349,10540.2,7739.99,59.66,0,10.2005,50.6722,10301.5,14.2521,11.9671,83100.2,158.191,101.3,1.35E-31,0.802638
370111,-4.3282,-8.18374,-0.961154,-32.9991,101.3,107.897,529.943,113.681,1043.37,438.377,10508.9,7709.85,59.66,0,10.1957,50.7414,10257.2,14.2492,12.0531,82724.6,158.191,101.3,1.33E-31,0.817806
370121,-4.34507,-8.24803,-1.0454,-32.9991,101.3,108.011,529.112,113.753,1043.21,448.684,10474.8,7677.07,59.66,0,10.1928,50.8163,10215.4,14.2448,12.1439,82349.5,158.191,101.3,1.31E-31,0.832841
370131,-4.35712,-8.31588,-1.12004,-32.9991,101.3,108.12,528.318,113.82,1043.05,459.317,10438.1,7642.12,59.66,0,10.1919,50.8943,10175.9,14.2394,12.2392,81937.9,158.191,101.3,1.30E-31,0.847406
370141,-4.36542,-8.3847,-1.18992,-32.9991,101.3,108.226,527.563,113.883,1042.9,470.179,10399.7,7605.75,59.66,0,10.1931,50.9729,10138,14.2329,12.3386,81584.6,158.191,101.3,1.28E-31,0.862051
370151,-4.37037,-8.45403,-1.25302,-32.9991,101.3,108.326,526.833,113.94,1042.69,481.713,10359.4,7567.92,59.66,0,10.1961,51.0504,10102.6,14.2261,12.4414,81195.3,158.191,101.3,1.27E-31,0.87694
370161,-4.37243,-8.52414,-1.31064,-32.9991,101.3,108.425,526.155,113.995,1042.53,493.015,10318.4,7529.61,59.66,0,10.201,51.1253,10069.2,14.2187,12.5473,80786,158.191,101.3,1.25E-31,0.891392
370171,-4.37211,-8.59442,-1.36499,-32.9991,101.3,108.52,525.505,114.052,1042.37,504.553,10276.7,7490.93,59.66,0,10.2073,51.1963,10037.2,14.211,12.6558,80410.4,158.191,101.3,1.24E-31,0.905524
370181,-4.36974,-8.66452,-1.41513,-32.9991,101.3,108.616,524.884,114.105,1042.24,516.201,10234.6,7452.15,59.66,0,10.2151,51.2632,10006.2,14.2033,12.7666,80016.3,158.191,101.3,1.23E-31,0.919072
370191,-4.3655,-8.73305,-1.46045,-32.9991,101.3,108.706,524.292,114.153,1042.09,528.33,10192.4,7413.5,59.66,0,10.2242,51.3246,9976.96,14.1955,12.8771,79662.8,158.191,101.3,1.22E-31,0.932832
370201,-4.35994,-8.80123,-1.50341,-32.9991,101.3,108.793,523.729,114.2,1041.95,540.289,10150.2,7375.25,59.66,0,10.2345,51.3802,9949.11,14.1883,12.992,79299.4,158.191,101.3,1.21E-31,0.946286
370211,-4.35329,-8.86812,-1.54402,-32.9991,101.3,108.88,523.205,114.247,1041.86,552.191,10108.7,7337.75,59.66,0,10.2457,51.4298,9922.62,14.1815,13.1081,78979.2,158.191,101.3,1.20E-31,0.959426
370221,-4.34555,-8.93232,-1.57861,-32.9991,101.3,108.963,522.689,114.29,1041.73,564.621,10067.3,7300.73,59.66,0,10.2577,51.4732,9897.09,14.1756,13.2255,78659.2,158.191,101.3,1.19E-31,0.973226
370231,-4.33729,-8.9959,-1.61301,-32.9991,101.3,109.042,522.19,114.333,1041.6,577.157,10026.5,7264.54,59.66,0,10.2702,51.5102,9872.57,14.1706,13.3436,78360.1,158.191,101.3,1.18E-31,0.986964
370241,-4.3287,-9.05813,-1.64579,-32.9991,101.3,109.124,521.72,114.376,1041.5,589.454,9986.7,7229.45,59.66,0,10.283,51.541,9848.78,14.1665,13.4626,78065.1,158.191,101.3,1.17E-31,1.00003
370251,-4.31979,-9.11847,-1.67605,-32.9991,101.3,109.201,521.277,114.416,1041.43,601.788,9947.74,7195.36,59.66,0,10.2962,51.5659,9826.23,14.1633,13.5823,77797.2,158.191,101.3,1.16E-31,1.01262
370261,-4.3107,-9.17669,-1.7033,-32.9991,101.3,109.275,520.843,114.455,1041.33,614.409,9909.48,7162.16,59.66,0,10.3096,51.585,9804.53,14.1613,13.7026,77561.6,158.191,101.3,1.15E-31,1.02524
370271,-4.30129,-9.23191,-1.72667,-32.9991,101.3,109.345,520.431,114.49,1041.23,627.163,9872.12,7130,59.66,0,10.323,51.5983,9784.23,14.1607,13.8233,77310.1,158.191,101.3,1.14E-31,1.03844
370281,-4.29196,-9.28656,-1.74942,-32.9991,101.3,109.419,520.05,114.528,1041.19,639.482,9836.25,7099.34,59.66,0,10.3362,51.6061,9764.34,14.161,13.9445,77069.2,158.191,101.3,1.13E-31,1.05143
370291,-4.28267,-9.33932,-1.77015,-32.9991,101.3,109.49,519.691,114.563,1041.16,651.884,9801.49,7069.87,59.66,0,10.3493,51.6087,9745.3,14.1624,14.0657,76836,158.191,101.3,1.13E-31,1.06425
370301,-4.27341,-9.39004,-1.78912,-32.9991,101.3,109.556,519.354,114.595,1041.13,664.302,9767.88,7041.64,59.66,0,10.3621,51.6061,9727.7,14.1653,14.1866,76607.1,158.191,101.3,1.12E-31,1.07695
370311,-4.26422,-9.43883,-1.80624,-32.9991,101.3,109.619,519.014,114.627,1041.06,676.952,9735.18,7014.45,59.66,0,10.3745,51.5986,9710.67,14.1699,14.3068,76383.9,158.191,101.3,1.11E-31,1.08955
370321,-4.2554,-9.48569,-1.8219,-32.9991,101.3,109.682,518.702,114.659,1041.03,689.345,9703.96,6988.71,59.66,0,10.3864,51.5867,9694.42,14.1755,14.4265,76164.7,158.191,101.3,1.10E-31,1.10207
370331,-4.24817,-9.53073,-1.83685,-32.9991,101.3,109.746,518.412,114.691,1041.04,701.367,9674.22,6964.39,59.66,0,10.3976,51.5708,9678.47,14.1822,14.545,75951.4,158.191,101.3,1.10E-31,1.1145
370341,-4.2386,-9.57393,-1.85174,-32.9991,101.3,109.809,518.116,114.723,1041.02,713.651,9645.48,6941.12,59.66,0,10.4083,51.5515,9662.57,14.19,14.6586,75752.6,158.191,101.3,1.09E-31,1.12702
370351,-4.23002,-9.61561,-1.87719,-32.9991,101.3,109.879,517.808,114.758,1041.02,725.713,9617.96,6919.05,59.66,0,10.4183,51.5295,9645.5,14.199,14.7758,75525.8,158.191,101.3,1.09E-31,1.13944
370361,-4.22087,-9.65669,-1.93732,-32.9991,101.3,109.982,517.364,114.82,1041.02,737.739,9591.33,6897.82,59.66,0,10.4275,51.5077,9619.83,14.2089,14.8897,75338.9,158.191,101.3,1.08E-31,1.15136
370371,-4.21301,-9.69756,-2.01968,-32.9991,101.3,110.11,516.775,114.903,1041.01,749.839,9564.27,6876.1,59.66,0,10.4359,51.4911,9585.85,14.2193,15.0013,75150.7,158.191,101.3,1.08E-31,1.16303
370381,-4.2044,-9.73969,-2.1012,-32.9991,101.3,110.236,516.108,114.989,1040.94,762.391,9535.31,6852.51,59.66,0,10.4435,51.4822,9549.54,14.23,15.1103,74978.9,158.191,101.3,1.07E-31,1.17487
370391,-4.19709,-9.78431,-2.18222,-32.9991,101.3,110.37,515.406,115.074,1040.91,774.645,9504.47,6826.91,59.66,0,10.4503,51.4831,9510.64,14.2394,15.217,74803.6,158.191,101.3,1.07E-31,1.1866
370401,-4.1895,-9.83092,-2.26267,-32.9991,101.3,110.497,514.705,115.154,1040.87,787.182,9471.51,6799.15,59.66,0,10.4565,51.492,9472.87,14.2474,15.3212,74636,158.191,101.3,1.06E-31,1.19803
370411,-4.18234,-9.87942,-2.33994,-32.9991,101.3,110.631,513.976,115.236,1040.8,799.944,9436.38,6769.26,59.66,0,10.4623,51.5086,9434.08,14.2539,15.4225,74474.6,158.191,101.3,1.06E-31,1.20915
370421,-4.17547,-9.92935,-2.41478,-32.9991,101.3,110.764,513.254,115.312,1040.74,812.787,9399.68,6737.75,59.66,0,10.4677,51.5307,9395.52,14.2581,15.5206,74319.4,158.191,101.3,1.05E-31,1.21993
370431,-4.16879,-9.98121,-2.48739,-32.9991,101.3,110.899,512.526,115.388,1040.66,825.82,9361.52,6704.84,59.66,0,10.473,51.5571,9356.9,14.2602,15.6153,74169.3,158.191,101.3,1.05E-31,1.23038
370441,-4.15818,-10.0329,-2.55778,-32.9991,101.3,111.027,511.827,115.46,1040.61,838.762,9322.31,6670.87,59.66,0,10.4783,51.5863,9319.79,14.2599,15.706,74023.2,158.191,101.3,1.04E-31,1.24048
370451,-4.15608,-10.0856,-2.62552,-32.9991,101.3,111.165,511.124,115.537,1040.58,851.63,9282.28,6636.04,59.66,0,10.4833,51.6178,9281.65,14.257,15.7926,73881.9,158.191,101.3,1.04E-31,1.25025
370461,-4.14663,-10.1387,-2.69097,-32.9991,101.3,111.295,510.413,115.608,1040.48,865.163,9241.03,6600.12,59.66,0,10.4883,51.6505,9244.58,14.2523,15.8746,73743.5,158.191,101.3,1.04E-31,1.25968
370471,-4.14391,-10.1923,-2.75438,-32.9991,101.3,111.433,509.703,115.683,1040.4,878.593,9199.35,6563.78,59.66,0,10.4932,51.6837,9207.03,14.245,15.9519,73610.1,158.191,101.3,1.03E-31,1.26875
370481,-4.13576,-10.2457,-2.81635,-32.9991,101.3,111.565,509.008,115.754,1040.32,892.119,9157.21,6527.03,59.66,0,10.4982,51.7167,9170.24,14.2353,16.024,73479.3,158.191,101.3,1.03E-31,1.27746
370491,-4.13251,-10.2993,-2.87665,-32.9991,101.3,111.703,508.309,115.828,1040.25,905.712,9114.85,6490.09,59.66,0,10.5032,51.7489,9133.13,14.2231,16.0908,73353.8,158.191,101.3,1.03E-31,1.28584
370501,-4.12547,-10.3528,-2.93569,-32.9991,101.3,111.839,507.627,115.9,1040.19,919.281,9072.31,6453.01,59.66,0,10.5084,51.7801,9096.73,14.2084,16.1522,73231.3,158.191,101.3,1.02E-31,1.29386
370511,-4.12183,-10.4062,-2.99273,-32.9991,101.3,111.976,506.945,115.97,1040.11,933.107,9029.57,6415.84,59.66,0,10.5137,51.8098,9060.67,14.1914,16.2073,73114.1,158.191,101.3,1.02E-31,1.30153
370521,-4.11568,-10.4591,-3.0491,-32.9991,101.3,112.11,506.267,116.039,1040.02,947.168,8986.95,6378.84,59.66,0,10.519,51.8373,9024.93,14.1717,16.2569,72999.8,158.191,101.3,1.02E-31,1.30889
370531,-4.11189,-10.5117,-3.1043,-32.9991,101.3,112.248,505.589,116.11,1039.94,961.161,8944.52,6342.06,59.66,0,10.5244,51.8629,8988.96,14.1498,16.3022,72889.9,158.191,101.3,1.02E-31,1.31588
370541,-4.10635,-10.5639,-3.1575,-32.9991,101.3,112.387,504.914,116.182,1039.87,975.304,8902.21,6305.46,59.66,0,10.5298,51.8867,8953.08,14.1255,16.3411,72785,158.191,101.3,1.01E-31,1.32255
370551,-4.1025,-10.6155,-3.2109,-32.9991,101.3,112.524,504.259,116.251,1039.82,989.263,8860.27,6269.23,59.66,0,10.5352,51.9083,8917.85,14.0985,16.3739,72684,158.191,101.3,1.01E-31,1.3289
370561,-4.09745,-10.6666,-3.26258,-32.9991,101.3,112.664,503.596,116.321,1039.75,1003.55,8818.59,6233.32,59.66,0,10.5406,51.9277,8882.26,14.0692,16.4048,72584.4,158.191,101.3,1.01E-31,1.33495
370571,-4.09382,-10.7172,-3.31431,-32.9991,101.3,112.806,502.928,116.393,1039.68,1017.85,8777.15,6197.7,59.66,0,10.546,51.9452,8846.6,14.0378,16.4257,72491.7,158.191,101.3,1.01E-31,1.34061
370581,-4.08893,-10.7672,-3.36483,-32.9991,101.3,112.949,502.26,116.464,1039.6,1032.33,8735.94,6162.36,59.66,0,10.5513,51.9608,8810.98,14.0038,16.4411,72400.8,158.191,101.3,1.00E-31,1.34586
370591,-4.08551,-10.8166,-3.41439,-32.9991,101.3,113.086,501.61,116.531,1039.51,1046.99,8695.05,6127.39,59.66,0,10.5566,51.9742,8776.69,13.9672,16.4503,72313.6,158.191,101.3,1.00E-31,1.35076
370601,-4.08092,-10.8653,-3.46261,-32.9991,101.3,113.228,500.968,116.6,1039.45,1061.52,8654.8,6093.06,59.66,0,10.5618,51.9854,8742.06,13.9279,16.4535,72229.8,158.191,101.3,1.00E-31,1.35529
370611,-4.07748,-10.9133,-3.51028,-32.9991,101.3,113.37,500.32,116.669,1039.38,1076.24,8614.96,6059.16,59.66,0,10.5668,51.9945,8707.32,13.8862,16.4525,72149.3,158.191,101.3,9.98E-32,1.35948
370621,-4.07327,-10.9605,-3.55733,-32.9991,101.3,113.51,499.697,116.738,1039.35,1090.57,8575.81,6025.89,59.66,0,10.5717,52.0017,8673.24,13.8416,16.4423,72071.8,158.191,101.3,9.97E-32,1.36331
370631,-4.06975,-11.0071,-3.60321,-32.9991,101.3,113.654,499.061,116.806,1039.3,1105.31,8536.93,5992.94,59.66,0,10.5764,52.0073,8638.59,13.7945,16.4275,71997.2,158.191,101.3,9.95E-32,1.36678
370641,-4.06592,-11.053,-3.64864,-32.9991,101.3,113.8,498.427,116.877,1039.24,1120.03,8498.47,5960.44,59.66,0,10.581,52.0112,8604.48,13.7451,16.4076,71926,158.191,101.3,9.94E-32,1.36992
370651,-4.06223,-11.0982,-3.69224,-32.9991,101.3,113.946,497.802,116.945,1039.19,1134.94,8460.59,5928.54,59.66,0,10.5855,52.0132,8570.49,13.693,16.3848,71857.4,158.191,101.3,9.92E-32,1.37271
370661,-4.05888,-11.1427,-3.7357,-32.9991,101.3,114.087,497.184,117.011,1039.13,1149.84,8423.12,5897.09,59.66,0,10.5899,52.0136,8537.15,13.6387,16.3541,71791.8,158.191,101.3,9.91E-32,1.37516
370671,-4.05509,-11.1863,-3.7782,-32.9991,101.3,114.23,496.568,117.078,1039.07,1164.8,8386.22,5866.18,59.66,0,10.594,52.0124,8503.75,13.582,16.319,71728.9,158.191,101.3,9.90E-32,1.37728
370681,-4.05182,-11.2291,-3.82028,-32.9991,101.3,114.372,495.96,117.145,1039.01,1179.74,8349.89,5835.83,59.66,0,10.5979,52.0096,8470.76,13.5231,16.2791,71668.9,158.191,101.3,9.88E-32,1.37907
370691,-4.04819,-11.2715,-3.86136,-32.9991,101.3,114.514,495.363,117.211,1038.96,1194.72,8314.07,5805.99,59.66,0,10.6016,52.0055,8438.27,13.462,16.2347,71611.7,158.191,101.3,9.87E-32,1.38053
370701,-4.04493,-11.3126,-3.90138,-32.9991,101.3,114.661,494.783,117.278,1038.98,1209.22,8279.13,5776.92,59.66,0,10.605,52.0001,8405.4,13.3984,16.1858,71557.2,158.191,101.3,9.86E-32,1.38167
370711,-4.04139,-11.3531,-3.941,-32.9991,101.3,114.803,494.188,117.342,1038.92,1224.51,8244.32,5748.06,59.66,0,10.6082,51.9934,8373.16,13.3331,16.1326,71505.4,158.191,101.3,9.86E-32,1.3825
370721,-4.04232,-11.393,-3.97979,-32.9991,101.3,114.948,493.592,117.409,1038.85,1239.51,8209.93,5719.64,59.66,0,10.6111,51.9859,8340.98,13.2661,16.0753,71456,158.191,101.3,9.85E-32,1.38301
370731,-4.03837,-11.4321,-4.01754,-32.9991,101.3,115.092,493.02,117.474,1038.83,1254.38,8176.31,5691.9,59.66,0,10.6139,51.9773,8309.21,13.1969,16.0143,71409.3,158.191,101.3,9.84E-32,1.38321
370741,-4.03338,-11.4705,-4.05462,-32.9991,101.3,115.237,492.445,117.539,1038.8,1269.37,8143.1,5664.57,59.66,0,10.6164,51.9678,8277.47,13.1266,15.9566,71364.9,158.191,101.3,9.83E-32,1.38311
370751,-4.02697,-11.5079,-4.09058,-32.9991,101.3,115.379,491.881,117.603,1038.77,1284.26,8110.44,5637.75,59.66,0,10.6186,51.9575,8246.02,13.0564,15.9098,71321.7,158.191,101.3,9.83E-32,1.38271
370761,-4.02832,-11.5449,-4.12628,-32.9991,101.3,115.526,491.317,117.668,1038.75,1299.18,8078.26,5611.4,59.66,0,10.6206,51.9462,8214.56,12.9871,15.8659,71283.3,158.191,101.3,9.82E-32,1.38203
370771,-4.02426,-11.5809,-4.16055,-32.9991,101.3,115.668,490.769,117.731,1038.74,1314.02,8046.54,5585.49,59.66,0,10.6225,51.9343,8183.95,12.9191,15.8288,71245.3,158.191,101.3,9.82E-32,1.38101
370781,-4.01984,-11.616,-4.19349,-32.9991,101.3,115.807,490.216,117.792,1038.67,1329.21,8015.01,5559.84,59.66,0,10.624,51.9216,8154.01,12.853,15.7927,71209.6,158.191,101.3,9.81E-32,1.37974
370791,-4.01499,-11.6504,-4.22553,-32.9991,101.3,115.949,489.702,117.853,1038.69,1343.69,7984.6,5535.12,59.66,0,10.6252,51.9077,8124.49,12.7873,15.7567,71176,158.191,101.3,9.81E-32,1.3782
370801,-4.0162,-11.684,-4.25686,-32.9991,101.3,116.091,489.171,117.915,1038.67,1358.65,7954.53,5510.77,59.66,0,10.6261,51.8931,8094.72,12.7231,15.7215,71144.4,158.191,101.3,9.81E-32,1.3764
370811,-4.01111,-11.7169,-4.28749,-32.9991,101.3,116.227,488.67,117.973,1038.69,1373.2,7925.22,5487.09,59.66,0,10.6266,51.8773,8066.1,12.6593,15.6852,71114.7,158.191,101.3,9.80E-32,1.37434
370821,-4.01111,-11.7488,-4.31673,-32.9991,101.3,116.366,488.168,118.032,1038.7,1387.84,7896.32,5463.79,59.66,0,10.6269,51.8614,8037.38,12.5967,15.6503,71086.9,158.191,101.3,9.80E-32,1.37202
370831,-4.00676,-11.78,-4.34587,-32.9991,101.3,116.501,487.671,118.09,1038.68,1402.53,7867.94,5441,59.66,0,10.6268,51.8442,8009.61,12.5345,15.6142,71060.8,158.191,101.3,9.80E-32,1.36947
370841,-4.00334,-11.8104,-4.37337,-32.9991,101.3,116.637,487.194,118.147,1038.7,1417,7840.31,5418.85,59.66,0,10.6264,51.8266,7982.06,12.4725,15.5749,71036.6,158.191,101.3,9.80E-32,1.36667
370851,-3.99782,-11.84,-4.40022,-32.9991,101.3,116.769,486.722,118.203,1038.69,1431.56,7813.14,5397.14,59.66,0,10.6257,51.8081,7955.48,12.411,15.5359,71014.1,158.191,101.3,9.80E-32,1.36364
370861,-3.99898,-11.8687,-4.42578,-32.9991,101.3,116.901,486.276,118.258,1038.74,1445.6,7786.86,5376.18,59.66,0,10.6245,51.7889,7929.29,12.3498,15.4979,70993.7,158.191,101.3,9.80E-32,1.36039
370871,-3.99541,-11.8965,-4.45087,-32.9991,101.3,117.036,485.827,118.315,1038.78,1459.73,7761.22,5355.78,59.66,0,10.623,51.769,7902.66,12.2886,15.4566,70974.3,158.191,101.3,9.80E-32,1.35692
370881,-3.99018,-11.9236,-4.47488,-32.9991,101.3,117.168,485.374,118.369,1038.79,1474.02,7735.92,5335.71,59.66,0,10.6212,51.7488,7876.61,12.2278,15.4149,70956.8,158.191,101.3,9.80E-32,1.35324
370891,-3.99018,-11.9501,-4.49845,-32.9991,101.3,117.298,484.936,118.423,1038.81,1488.13,7711.28,5316.24,59.66,0,10.6191,51.7279,7851.23,12.1672,15.3724,70940.9,158.191,101.3,9.81E-32,1.34935
370901,-3.98657,-11.9755,-4.52111,-32.9991,101.3,117.422,484.524,118.473,1038.85,1501.99,7687.35,5297.35,59.66,0,10.6166,51.7065,7826.96,12.1069,15.3274,70926.6,158.191,101.3,9.81E-32,1.34527
370911,-3.9827,-12.0003,-4.54285,-32.9991,101.3,117.55,484.089,118.526,1038.85,1516.22,7663.8,5278.84,59.66,0,10.6138,51.6845,7802.08,12.0468,15.2852,70913.8,158.191,101.3,9.81E-32,1.34101
370921,-3.97788,-12.0243,-4.56377,-32.9991,101.3,117.677,483.686,118.578,1038.89,1529.77,7641.01,5260.96,59.66,0,10.6108,51.6624,7778.18,11.9869,15.2388,70902.4,158.191,101.3,9.81E-32,1.33656
370931,-3.97889,-12.0475,-4.58377,-32.9991,101.3,117.796,483.298,118.626,1038.93,1543.46,7618.82,5243.61,59.66,0,10.6074,51.6395,7755.34,11.9268,15.1952,70892.5,158.191,101.3,9.82E-32,1.33194
370941,-3.97339,-12.0698,-4.60313,-32.9991,101.3,117.917,482.906,118.675,1038.95,1557.07,7597.19,5226.75,59.66,0,10.6038,51.6163,7732.33,11.8673,15.1502,70884,158.191,101.3,9.82E-32,1.32716
