Time,20-3 - Temperature,17-2 - Temperature,61-3 - Temperature,53-3 - Temperature,53-3 - Pressure,69 - Temperature,69 - Pressure,81 - Temperature,81 - Pressure,5-2 - Mass Flow,108 - Mass Flow,89-2 - Mass Flow,1 - Temperature,1 - Mass Flow,LIC506 - PV,LIC502 - PV,81 - Mass Flow,86 - Temperature,71-2 - Temperature,67 - Mass Flow,34-2 - Temperature,34-2 - Pressure,34-2 - Mass Flow,LIC508 - OP
[seconds],[C],[C],[C],[C],[kPa],[C],[kPa],[C],[kPa],[kg/h],[kg/h],[kg/h],[C],[kg/h],[%],[%],[kg/h],[C],[C],[kg/h],[C],[kPa],[kg/h],[%]
369941,4.00307,-8.72031,-0.477927,-32.9991,101.3,106.62,537.749,112.759,1043.72,301.292,10643.2,7824.69,59.66,0,10.3462,51.1863,10685.2,14.3398,11.4719,85876,158.191,101.3,1.70E-31,0.610722
369951,3.27289,-8.65355,-0.348226,-32.9991,101.3,106.594,537.837,112.735,1043.75,309.775,10627.7,7812.55,59.66,0,10.3476,51.1607,10692.5,14.3159,11.4573,87481.1,158.191,101.3,1.69E-31,0.612515
369961,1.72063,-8.42249,-0.104239,-32.9991,101.3,106.497,538.383,112.635,1043.84,317.698,10615.4,7803.41,59.66,0,10.348,51.1185,10725.7,14.2923,11.4451,89180.7,158.191,101.3,1.67E-31,0.616125
369971,-0.290353,-8.11381,0.155808,-32.9991,101.3,106.389,539.183,112.517,1043.99,324.826,10610.2,7801.07,59.66,0,10.3465,51.0484,10770.2,14.2711,11.4383,90439.4,158.191,101.3,1.64E-31,0.623495
369981,-2.38288,-7.81254,0.356025,-32.9991,101.3,106.322,539.913,112.437,1044.16,331.417,10614.6,7807.79,59.66,0,10.3414,50.945,10807.4,14.2549,11.4386,91010.3,158.191,101.3,1.61E-31,0.635298
369991,-4.32148,-7.56456,0.458963,-32.9991,101.3,106.321,540.334,112.424,1044.34,337.439,10628.3,7822.88,59.66,0,10.3316,50.8155,10823.7,14.2457,11.4516,90991.2,158.191,101.3,1.57E-31,0.650436
370001,-5.90542,-7.38343,0.470127,-32.9991,101.3,106.388,540.319,112.484,1044.52,343.19,10647.7,7842.72,59.66,0,10.3167,50.6765,10814.5,14.2443,11.4739,90582.8,158.191,101.3,1.53E-31,0.668859
370011,-7.08637,-7.26763,0.408044,-32.9991,101.3,106.505,539.876,112.596,1044.61,349.353,10668.2,7862.91,59.66,0,10.2977,50.5443,10783,14.2504,11.511,89810.7,158.191,101.3,1.49E-31,0.690161
370021,-7.91343,-7.20534,0.297441,-32.9991,101.3,106.66,539.045,112.743,1044.62,355.955,10686.2,7879.92,59.66,0,10.2754,50.4325,10732.2,14.2628,11.5617,88893,158.191,101.3,1.45E-31,0.712679
370031,-8.47211,-7.17684,0.156245,-32.9991,101.3,106.832,537.972,112.903,1044.58,362.965,10699.6,7891.81,59.66,0,10.2513,50.3472,10670.5,14.2793,11.6258,87908.5,158.191,101.3,1.41E-31,0.73528
370041,-8.8453,-7.17635,0.00170834,-32.9991,101.3,107.013,536.736,113.064,1044.48,370.582,10706.4,7896.93,59.66,0,10.2266,50.2929,10602.3,14.2984,11.7031,86911.9,158.191,101.3,1.37E-31,0.757225
370051,-9.10153,-7.19396,-0.151727,-32.9991,101.3,107.193,535.43,113.215,1044.34,378.734,10706,7894.62,59.66,0,10.2022,50.27,10532.4,14.3184,11.7928,86009.5,158.191,101.3,1.34E-31,0.780181
370061,-9.28517,-7.22854,-0.307966,-32.9991,101.3,107.376,534.097,113.36,1044.2,387.243,10698.5,7885.16,59.66,0,10.1792,50.2766,10461.7,14.3379,11.8942,85181.6,158.191,101.3,1.31E-31,0.802818
370071,-9.42032,-7.27176,-0.453495,-32.9991,101.3,107.549,532.766,113.488,1043.96,396.849,10683.4,7868.38,59.66,0,10.158,50.3088,10393.7,14.3569,12.0068,84347.3,158.191,101.3,1.28E-31,0.825916
370081,-9.52319,-7.32491,-0.585694,-32.9991,101.3,107.712,531.505,113.602,1043.77,406.49,10662.2,7845.66,59.66,0,10.1392,50.3622,10329.2,14.3742,12.1305,83659.5,158.191,101.3,1.25E-31,0.849208
370091,-9.60303,-7.38602,-0.714047,-32.9991,101.3,107.87,530.274,113.709,1043.53,416.883,10635.2,7817.45,59.66,0,10.1231,50.4323,10267.2,14.3901,12.2646,83036.7,158.191,101.3,1.22E-31,0.871953
370101,-9.66435,-7.45167,-0.823012,-32.9991,101.3,108.01,529.16,113.801,1043.31,427.571,10603.2,7784.48,59.66,0,10.1097,50.5151,10212.1,14.4047,12.4092,82390.8,158.191,101.3,1.20E-31,0.89521
370111,-9.71119,-7.52155,-0.916536,-32.9991,101.3,108.146,528.097,113.886,1043.04,439.066,10566.6,7747.41,59.66,0,10.0994,50.6068,10160.3,14.4186,12.564,81823.8,158.191,101.3,1.17E-31,0.918523
370121,-9.74657,-7.59725,-1.00148,-32.9991,101.3,108.272,527.144,113.958,1042.83,450.448,10527.1,7707.82,59.66,0,10.0921,50.7018,10113.5,14.4316,12.7283,81298.4,158.191,101.3,1.15E-31,0.941115
370131,-9.77087,-7.67178,-1.06559,-32.9991,101.3,108.385,526.275,114.016,1042.59,462.544,10484.9,7665.95,59.66,0,10.0877,50.7971,10072,14.445,12.902,80668.1,158.191,101.3,1.13E-31,0.964791
370141,-9.78645,-7.74941,-1.1219,-32.9991,101.3,108.49,525.489,114.074,1042.36,474.74,10441.1,7622.94,59.66,0,10.0863,50.8893,10034.8,14.4591,13.0845,80105.1,158.191,101.3,1.11E-31,0.987923
370151,-9.7947,-7.82808,-1.1694,-32.9991,101.3,108.583,524.799,114.119,1042.15,487.172,10396.3,7579.42,59.66,0,10.0875,50.9762,10002.1,14.4741,13.2753,79497.8,158.191,101.3,1.09E-31,1.01019
370161,-9.7958,-7.90403,-1.20836,-32.9991,101.3,108.671,524.184,114.161,1041.99,499.623,10351.5,7536.21,59.66,0,10.0913,51.0557,9972.54,14.4907,13.474,78946.7,158.191,101.3,1.07E-31,1.03293
370171,-9.79119,-7.98233,-1.34348,-32.9991,101.3,108.838,523.287,114.249,1041.78,512.491,10306.8,7493.6,59.66,0,10.0973,51.1311,9924.33,14.5098,13.6797,78300.6,158.191,101.3,1.05E-31,1.05531
370181,-9.78183,-8.06186,-1.56781,-32.9991,101.3,109.089,521.925,114.427,1041.55,525.994,10260.2,7449.4,59.66,0,10.1047,51.2133,9849.08,14.5309,13.8918,77702,158.191,101.3,1.03E-31,1.07693
370191,-9.76825,-8.14806,-1.81273,-32.9991,101.3,109.357,520.28,114.631,1041.21,540.679,10207.4,7399.4,59.66,0,10.1137,51.314,9761.45,14.5537,14.1099,77151.4,158.191,101.3,1.02E-31,1.09933
370201,-9.75161,-8.24573,-2.06045,-32.9991,101.3,109.655,518.457,114.838,1040.9,555.795,10146.7,7341.79,59.66,0,10.124,51.4408,9664.11,14.5756,14.3341,76587.4,158.191,101.3,1.00E-31,1.12202
370211,-9.73237,-8.35394,-2.30702,-32.9991,101.3,109.942,516.573,115.037,1040.49,572.48,10076.7,7275.38,59.66,0,10.1357,51.5921,9567.43,14.5968,14.5679,76035.4,158.191,101.3,9.87E-32,1.14429
370221,-9.71126,-8.47125,-2.54853,-32.9991,101.3,110.257,514.596,115.234,1040.03,589.994,9998.37,7201.07,59.66,0,10.1493,51.7643,9466,14.6158,14.8073,75527.6,158.191,101.3,9.73E-32,1.16561
370231,-9.6884,-8.59554,-2.78534,-32.9991,101.3,110.562,512.643,115.428,1039.59,608.272,9912.42,7119.56,59.66,0,10.1647,51.9524,9367.15,14.6322,15.0531,75045.9,158.191,101.3,9.59E-32,1.1868
370241,-9.66445,-8.72754,-3.016,-32.9991,101.3,110.892,510.635,115.623,1039.11,627.556,9819.25,7031.37,59.66,0,10.1825,52.1531,9265.2,14.6461,15.305,74571.2,158.191,101.3,9.46E-32,1.20718
370251,-9.63949,-8.86494,-3.23904,-32.9991,101.3,111.231,508.619,115.809,1038.62,647.755,9720.01,6937.67,59.66,0,10.2024,52.361,9162.44,14.6574,15.5625,74132.6,158.191,101.3,9.34E-32,1.22684
370261,-9.61384,-9.00752,-3.45568,-32.9991,101.3,111.559,506.662,115.994,1038.16,668.712,9615.05,6838.78,59.66,0,10.2247,52.5736,9063.5,14.6663,15.8252,73715.4,158.191,101.3,9.22E-32,1.24602
370271,-9.5878,-9.15379,-3.66134,-32.9991,101.3,111.903,504.678,116.179,1037.64,690.814,9504.78,6735.25,59.66,0,10.2493,52.7875,8963.4,14.6738,16.093,73287.4,158.191,101.3,9.10E-32,1.26473
370281,-9.56165,-9.30446,-3.86138,-32.9991,101.3,112.243,502.726,116.359,1037.09,713.959,9390.4,6628.23,59.66,0,10.2761,52.998,8865.77,14.6801,16.3641,72877,158.191,101.3,8.99E-32,1.28224
370291,-9.53513,-9.45649,-4.04973,-32.9991,101.3,112.594,500.804,116.536,1036.59,737.712,9272.89,6518.62,59.66,0,10.305,53.2036,8768.43,14.685,16.6386,72497.5,158.191,101.3,8.88E-32,1.29956
370301,-9.50879,-9.61096,-4.23189,-32.9991,101.3,112.937,498.916,116.705,1036.04,762.692,9152.56,6406.86,59.66,0,10.3359,53.4007,8673.93,14.6896,16.9107,72102.2,158.191,101.3,8.78E-32,1.31651
370311,-9.48269,-9.76646,-4.40621,-32.9991,101.3,113.291,497.064,116.877,1035.55,787.823,9030.69,6294.11,59.66,0,10.3688,53.5877,8579.78,14.6941,17.1908,71709,158.191,101.3,8.68E-32,1.3327
370321,-9.45693,-9.92211,-4.576,-32.9991,101.3,113.642,495.249,117.05,1035.05,814.105,8907.44,6180.54,59.66,0,10.4032,53.7634,8488.01,14.6992,17.4694,71330.9,158.191,101.3,8.59E-32,1.34784
370331,-9.43159,-10.0775,-4.73703,-32.9991,101.3,114.006,493.435,117.219,1034.55,841.184,8783.5,6066.82,59.66,0,10.4388,53.9264,8395.31,14.7055,17.7479,70961.2,158.191,101.3,8.50E-32,1.36245
370341,-9.4065,-10.2325,-4.89408,-32.9991,101.3,114.364,491.656,117.383,1034.02,869.371,8659.26,5953.35,59.66,0,10.4754,54.0755,8305.45,14.7133,18.0241,70590.3,158.191,101.3,8.41E-32,1.3763
370351,-9.38196,-10.3865,-5.04578,-32.9991,101.3,114.735,489.91,117.553,1033.57,897.411,8535.64,5840.92,59.66,0,10.5132,54.211,8215.21,14.7222,18.2987,70236.1,158.191,101.3,8.33E-32,1.38945
370361,-9.35805,-10.5391,-5.19348,-32.9991,101.3,115.099,488.189,117.713,1033.07,926.954,8412.48,5729.44,59.66,0,10.5515,54.3319,8127.04,14.7335,18.5747,69898.7,158.191,101.3,8.24E-32,1.40202
370371,-9.33472,-10.6902,-5.33578,-32.9991,101.3,115.472,486.5,117.879,1032.62,956.606,8290.36,5619.43,59.66,0,10.5904,54.439,8039.77,14.7475,18.8457,69560.5,158.191,101.3,8.17E-32,1.41419
370381,-9.31224,-10.8398,-5.47525,-32.9991,101.3,115.857,484.82,118.043,1032.17,987.017,8169.44,5511.04,59.66,0,10.6297,54.5325,7952.23,14.7639,19.1127,69236.1,158.191,101.3,8.09E-32,1.42568
370391,-9.29051,-10.9873,-5.61123,-32.9991,101.3,116.233,483.179,118.208,1031.74,1017.96,8049.92,5404.41,59.66,0,10.6692,54.6126,7866.55,14.7831,19.3753,68923,158.191,101.3,8.02E-32,1.43652
370401,-9.26957,-11.1326,-5.74227,-32.9991,101.3,116.623,481.557,118.373,1031.33,1049.37,7931.95,5299.58,59.66,0,10.708,54.6807,7781.17,14.8051,19.6326,68620.5,158.191,101.3,7.95E-32,1.44678
370411,-9.24945,-11.2758,-5.86982,-32.9991,101.3,117.013,479.962,118.533,1030.92,1081.56,7815.75,5196.86,59.66,0,10.7466,54.7361,7696.9,14.8299,19.8841,68329.9,158.191,101.3,7.88E-32,1.45651
370421,-9.23016,-11.4167,-5.99348,-32.9991,101.3,117.399,478.383,118.693,1030.48,1114.6,7701.19,5096.1,59.66,0,10.7848,54.7798,7614.17,14.8581,20.1313,68040,158.191,101.3,7.81E-32,1.46572
370431,-9.21176,-11.5551,-6.11268,-32.9991,101.3,117.797,476.847,118.854,1030.12,1147.29,7588.96,4997.78,59.66,0,10.8221,54.8128,7531.74,14.889,20.3701,67761.2,158.191,101.3,7.75E-32,1.47424
370441,-9.19802,-11.6911,-6.22834,-32.9991,101.3,118.19,475.348,119.01,1029.76,1180.85,7478.97,4901.92,59.66,0,10.8588,54.8347,7451.12,14.9222,20.5995,67490.4,158.191,101.3,7.69E-32,1.48216
370451,-9.17943,-11.8243,-6.33999,-32.9991,101.3,118.585,473.878,119.166,1029.42,1214.71,7371.09,4808.35,59.66,0,10.8945,54.847,7371.87,14.9579,20.8223,67226.4,158.191,101.3,7.63E-32,1.48954
370461,-9.1639,-11.9547,-6.44747,-32.9991,101.3,118.981,472.428,119.318,1029.05,1249.4,7265.44,4717.18,59.66,0,10.929,54.8498,7293.61,14.9963,21.0371,66968.8,158.191,101.3,7.57E-32,1.49645
370471,-9.14836,-12.0833,-6.55188,-32.9991,101.3,119.381,471.018,119.474,1028.74,1283.9,7162.33,4628.6,59.66,0,10.9623,54.8439,7216.56,15.0368,21.2422,66716.3,158.191,101.3,7.52E-32,1.50291
370481,-9.13383,-12.2076,-6.65281,-32.9991,101.3,119.78,469.644,119.626,1028.46,1318.79,7061.68,4542.53,59.66,0,10.9944,54.8301,7140.64,15.0788,21.4362,66469.5,158.191,101.3,7.46E-32,1.50888
370491,-9.11962,-12.3294,-6.74992,-32.9991,101.3,120.184,468.287,119.777,1028.17,1354.05,6963.33,4458.8,59.66,0,11.0249,54.8091,7065.35,15.1221,21.6192,66229.7,158.191,101.3,7.41E-32,1.51453
370501,-9.10675,-12.4495,-6.84468,-32.9991,101.3,120.587,466.982,119.926,1027.93,1389.43,6867.7,4377.77,59.66,0,11.0539,54.7809,6991.98,15.1655,21.7879,65994.1,158.191,101.3,7.36E-32,1.51971
370511,-9.09407,-12.5651,-6.93664,-32.9991,101.3,120.994,465.69,120.077,1027.7,1425.02,6774.38,4299.07,59.66,0,11.0816,54.747,6918.64,15.2086,21.9488,65765.2,158.191,101.3,7.31E-32,1.52441
370521,-9.08213,-12.6784,-7.02578,-32.9991,101.3,121.404,464.402,120.226,1027.43,1461.39,6683.2,4222.5,59.66,0,11.1075,54.7078,6846,15.2521,22.0992,65542.8,158.191,101.3,7.27E-32,1.52867
370531,-9.07078,-12.789,-7.11228,-32.9991,101.3,121.811,463.172,120.371,1027.24,1497.19,6594.59,4148.38,59.66,0,11.1318,54.6638,6775.01,15.2944,22.2371,65327,158.191,101.3,7.22E-32,1.53253
370541,-9.06001,-12.8969,-7.19591,-32.9991,101.3,122.222,461.955,120.518,1027.03,1533.53,6508.05,4076.34,59.66,0,11.1547,54.6157,6704.83,15.335,22.3631,65117.1,158.191,101.3,7.18E-32,1.53602
370551,-9.04979,-13.0018,-7.27718,-32.9991,101.3,122.632,460.768,120.663,1026.85,1569.85,6423.73,4006.39,59.66,0,11.1759,54.5643,6635.6,15.3732,22.4772,64913,158.191,101.3,7.14E-32,1.53912
370561,-9.0405,-13.1051,-7.35648,-32.9991,101.3,123.042,459.617,120.807,1026.69,1606.4,6341.54,3938.47,59.66,0,11.1954,54.5099,6567.99,15.4079,22.58,64716.7,158.191,101.3,7.10E-32,1.54187
370571,-9.03056,-13.2045,-7.43248,-32.9991,101.3,123.456,458.474,120.953,1026.53,1643.03,6261.29,3872.35,59.66,0,11.2133,54.4534,6500.17,15.4389,22.6711,64524.2,158.191,101.3,7.06E-32,1.54433
370581,-9.02218,-13.3014,-7.50619,-32.9991,101.3,123.867,457.364,121.094,1026.39,1679.7,6183.19,3808.25,59.66,0,11.2295,54.3943,6433.95,15.4653,22.7507,64335.7,158.191,101.3,7.02E-32,1.54643
370591,-9.01359,-13.3953,-7.57834,-32.9991,101.3,124.283,456.276,121.237,1026.27,1716.28,6107.03,3745.91,59.66,0,11.2442,54.3338,6367.99,15.4862,22.8193,64153.4,158.191,101.3,6.98E-32,1.54817
370601,-9.00567,-13.4868,-7.64775,-32.9991,101.3,124.701,455.209,121.378,1026.17,1752.92,6032.66,3685.21,59.66,0,11.2572,54.2722,6302.72,15.5011,22.8771,63975.9,158.191,101.3,6.95E-32,1.54958
370611,-8.9981,-13.5757,-7.71502,-32.9991,101.3,125.112,454.176,121.514,1026.08,1789.57,5960.22,3626.25,59.66,0,11.2687,54.2094,6239.07,15.5095,22.9243,63802.6,158.191,101.3,6.91E-32,1.55065
370621,-8.99079,-13.6624,-7.77976,-32.9991,101.3,125.526,453.164,121.651,1025.99,1826.29,5889.37,3568.71,59.66,0,11.2786,54.1463,6176.29,15.5105,22.9614,63634,158.191,101.3,6.88E-32,1.5514
370631,-8.98389,-13.7467,-7.84216,-32.9991,101.3,125.94,452.176,121.788,1025.93,1862.9,5820.4,3512.85,59.66,0,11.2871,54.0824,6114.19,15.5038,22.9886,63469.8,158.191,101.3,6.85E-32,1.55184
370641,-8.98172,-13.8285,-7.90248,-32.9991,101.3,126.354,451.204,121.924,1025.85,1899.57,5753.07,3458.47,59.66,0,11.2942,54.018,6053.1,15.4889,23.0043,63310.1,158.191,101.3,6.82E-32,1.552
370651,-8.97229,-13.908,-7.96045,-32.9991,101.3,126.768,450.264,122.059,1025.81,1936.03,5687.4,3405.55,59.66,0,11.3001,53.9538,5993,15.4652,23.0139,63154.3,158.191,101.3,6.79E-32,1.55187
370661,-8.96853,-13.9853,-8.01647,-32.9991,101.3,127.178,449.352,122.191,1025.78,1972.32,5623.38,3354.1,59.66,0,11.3048,53.8894,5934.11,15.433,23.0143,63001.9,158.191,101.3,6.76E-32,1.55145
370671,-8.96118,-14.0601,-8.07093,-32.9991,101.3,127.592,448.447,122.325,1025.74,2008.62,5560.88,3303.99,59.66,0,11.3082,53.8252,5875.37,15.392,23.0047,62855,158.191,101.3,6.73E-32,1.55074
370681,-8.95583,-14.1329,-8.123,-32.9991,101.3,128.006,447.574,122.457,1025.75,2044.68,5499.92,3255.18,59.66,0,11.3105,53.7617,5817.46,15.3414,22.9857,62711.7,158.191,101.3,6.70E-32,1.54978
370691,-8.95057,-14.2033,-8.17304,-32.9991,101.3,128.416,446.726,122.586,1025.75,2080.69,5440.39,3207.61,59.66,0,11.3116,53.6986,5760.98,15.2812,22.9605,62572.8,158.191,101.3,6.68E-32,1.54856
370701,-8.9447,-14.2716,-8.22101,-32.9991,101.3,128.824,445.909,122.714,1025.79,2116.35,5382.44,3161.39,59.66,0,11.3117,53.6358,5705.5,15.2127,22.9396,62437.3,158.191,101.3,6.65E-32,1.5471
370711,-8.94009,-14.338,-8.2678,-32.9991,101.3,129.236,445.095,122.842,1025.81,2152.15,5325.77,3116.33,59.66,0,11.3109,53.5736,5650.07,15.1404,22.9299,62305.9,158.191,101.3,6.63E-32,1.5454
370721,-8.93467,-14.4021,-8.31266,-32.9991,101.3,129.639,444.303,122.967,1025.82,2187.74,5270.37,3072.35,59.66,0,11.309,53.5121,5596.31,15.0663,22.927,62178,158.191,101.3,6.61E-32,1.54348
370731,-8.93008,-14.4642,-8.35575,-32.9991,101.3,130.043,443.549,123.091,1025.89,2222.77,5216.47,3029.63,59.66,0,11.3062,53.4513,5543.25,14.9916,22.9259,62053.6,158.191,101.3,6.58E-32,1.54133
370741,-8.92535,-14.5246,-8.39672,-32.9991,101.3,130.45,442.805,123.214,1025.94,2257.83,5163.77,2987.97,59.66,0,11.3026,53.3911,5490.94,14.9177,22.9252,61932.8,158.191,101.3,6.56E-32,1.53898
370751,-8.92067,-14.5826,-8.43571,-32.9991,101.3,130.846,442.107,123.334,1026.05,2292.41,5112.45,2947.44,59.66,0,11.2981,53.3318,5440.13,14.8438,22.9227,61815.1,158.191,101.3,6.54E-32,1.53643
370761,-8.91637,-14.6388,-8.47315,-32.9991,101.3,131.241,441.405,123.453,1026.1,2327.23,5062.27,2907.95,59.66,0,11.2926,53.2729,5390.29,14.7707,22.9171,61698.9,158.191,101.3,6.52E-32,1.53369
370771,-8.91183,-14.6935,-8.50908,-32.9991,101.3,131.634,440.717,123.57,1026.15,2361.79,5013.5,2869.64,59.66,0,11.2862,53.2144,5340.82,14.6972,22.9085,61589.1,158.191,101.3,6.50E-32,1.53076
370781,-8.90785,-14.746,-8.54402,-32.9991,101.3,132.021,440.069,123.685,1026.24,2395.79,4966.04,2832.39,59.66,0,11.2789,53.1567,5293.13,14.6233,22.8973,61480.7,158.191,101.3,6.48E-32,1.52766
370791,-8.90347,-14.7969,-8.57669,-32.9991,101.3,132.405,439.416,123.797,1026.29,2430.01,4919.7,2796.12,59.66,0,11.2709,53.0997,5245.62,14.5483,22.8792,61375.3,158.191,101.3,6.46E-32,1.52437
370801,-8.8996,-14.8458,-8.60789,-32.9991,101.3,132.789,438.799,123.911,1026.38,2463.52,4874.79,2761.01,59.66,0,11.262,53.0431,5199.42,14.471,22.8581,61272.5,158.191,101.3,6.45E-32,1.52089
370811,-8.89548,-14.893,-8.63789,-32.9991,101.3,133.166,438.214,124.022,1026.51,2496.7,4831.17,2726.93,59.66,0,11.2523,52.9874,5154.31,14.3914,22.8326,61173.4,158.191,101.3,6.43E-32,1.51728
370821,-8.89161,-14.9386,-8.66649,-32.9991,101.3,133.537,437.659,124.129,1026.68,2529.53,4788.9,2693.95,59.66,0,11.2419,52.9322,5110.33,14.3085,22.8034,61076.5,158.191,101.3,6.41E-32,1.51354
370831,-8.88787,-14.9826,-8.69327,-32.9991,101.3,133.908,437.103,124.235,1026.79,2562.42,4747.74,2661.93,59.66,0,11.2308,52.8775,5067.09,14.2229,22.7699,60982.3,158.191,101.3,6.40E-32,1.50966
370841,-8.88398,-15.025,-8.71883,-32.9991,101.3,134.273,436.563,124.34,1026.9,2594.92,4707.74,2630.87,59.66,0,11.2192,52.8235,5024.85,14.1338,22.7316,60891.1,158.191,101.3,6.38E-32,1.50565
370851,-8.88042,-15.0657,-8.74351,-32.9991,101.3,134.636,436.035,124.443,1027.03,2627.27,4668.97,2600.82,59.66,0,11.2069,52.77,4982.87,14.041,22.6888,60801.8,158.191,101.3,6.37E-32,1.50152
370861,-8.87677,-15.105,-8.76673,-32.9991,101.3,134.991,435.532,124.544,1027.15,2659.08,4631.38,2571.7,59.66,0,11.194,52.7172,4942.58,13.9445,22.6434,60715.5,158.191,101.3,6.36E-32,1.49728
370871,-8.87327,-15.1428,-8.78899,-32.9991,101.3,135.341,435.048,124.643,1027.29,2690.57,4594.99,2543.56,59.66,0,11.1805,52.665,4903.09,13.8443,22.5972,60631.5,158.191,101.3,6.34E-32,1.49293
370881,-8.86977,-15.1791,-8.81033,-32.9991,101.3,135.691,434.577,124.742,1027.44,2721.76,4559.76,2516.35,59.66,0,11.1665,52.6134,4863.95,13.7404,22.5456,60549.8,158.191,101.3,6.33E-32,1.48848
370891,-8.86642,-15.2142,-8.83022,-32.9991,101.3,136.04,434.112,124.838,1027.58,2752.79,4525.54,2489.97,59.66,0,11.1522,52.5626,4825.16,13.6326,22.4904,60470.5,158.191,101.3,6.32E-32,1.48394
370901,-8.86308,-15.2477,-8.8493,-32.9991,101.3,136.381,433.668,124.933,1027.73,2783.44,4492.37,2464.43,59.66,0,11.1374,52.5125,4787.79,13.5212,22.4318,60393.4,158.191,101.3,6.31E-32,1.47931
370911,-8.85339,-15.28,-8.86712,-32.9991,101.3,136.715,433.253,125.025,1027.91,2813.52,4460.33,2439.78,59.66,0,11.1223,52.4631,4751.49,13.4061,22.3699,60318.5,158.191,101.3,6.30E-32,1.47461
370921,-8.85595,-15.3109,-8.88409,-32.9991,101.3,137.044,432.836,125.117,1028.05,2843.54,4429.19,2415.88,59.66,0,11.1069,52.4145,4715.79,13.2879,22.3047,60245.7,158.191,101.3,6.28E-32,1.46984
370931,-8.85595,-15.3407,-8.90046,-32.9991,101.3,137.371,432.434,125.205,1028.2,2873.24,4399.12,2392.85,59.66,0,11.0912,52.3663,4680.92,13.1661,22.2366,60175,158.191,101.3,6.27E-32,1.465
370941,-8.84826,-15.3691,-8.91533,-32.9991,101.3,137.696,432.046,125.293,1028.36,2902.55,4369.95,2370.54,59.66,0,11.0754,52.3189,4646.52,13.0412,22.1656,60106.3,158.191,101.3,6.26E-32,1.4601
370951,-8.84826,-15.3965,-8.9293,-32.9991,101.3,138.019,431.67,125.38,1028.52,2931.51,4341.7,2348.96,59.66,0,11.0593,52.2724,4612.76,12.9137,22.0919,60039.6,158.191,101.3,6.26E-32,1.45516
