Time,20-3 - Temperature,17-2 - Temperature,61-3 - Temperature,53-3 - Temperature,53-3 - Pressure,69 - Temperature,69 - Pressure,81 - Temperature,81 - Pressure,5-2 - Mass Flow,108 - Mass Flow,89-2 - Mass Flow,1 - Temperature,1 - Mass Flow,LIC506 - PV,LIC502 - PV,81 - Mass Flow,86 - Temperature,71-2 - Temperature,67 - Mass Flow,34-2 - Temperature,34-2 - Pressure,34-2 - Mass Flow,LIC508 - OP
[seconds],[C],[C],[C],[C],[kPa],[C],[kPa],[C],[kPa],[kg/h],[kg/h],[kg/h],[C],[kg/h],[%],[%],[kg/h],[C],[C],[kg/h],[C],[kPa],[kg/h],[%]
369931,4.11848,-8.69745,-0.48313,-32.9991,101.3,106.582,537.946,112.739,1043.71,292.778,10658.9,7837.1,59.66,0,10.3444,51.2067,10696.1,14.3656,11.4852,85211.5,158.191,101.3,1.70E-31,0.608905
369941,4.02296,-8.71943,-0.480695,-32.9991,101.3,106.621,537.745,112.76,1043.72,301.294,10643.2,7824.7,59.66,0,10.3462,51.1863,10684.9,14.3398,11.4719,85742.7,158.191,101.3,1.70E-31,0.610728
369951,3.44933,-8.66838,-0.379681,-32.9991,101.3,106.606,537.778,112.745,1043.75,309.804,10627.8,7812.58,59.66,0,10.3476,51.1617,10688.7,14.3159,11.4571,86951.4,158.191,101.3,1.69E-31,0.612529
369961,2.34122,-8.49886,-0.198657,-32.9991,101.3,106.538,538.148,112.672,1043.78,318.13,10614.7,7802.75,59.66,0,10.3482,51.1242,10712.2,14.2923,11.444,88117.3,158.191,101.3,1.67E-31,0.615909
369971,0.989188,-8.29084,-0.0231585,-32.9991,101.3,106.477,538.664,112.599,1043.91,325.435,10607.5,7798.48,59.66,0,10.3472,51.0656,10740.3,14.2703,11.4345,88904.2,158.191,101.3,1.65E-31,0.621423
369981,-0.353515,-8.10447,0.100988,-32.9991,101.3,106.444,539.113,112.553,1044.05,332.368,10607.5,7800.99,59.66,0,10.3434,50.9833,10762.1,14.252,11.4303,89137,158.191,101.3,1.63E-31,0.630099
369991,-1.50252,-7.96603,0.154699,-32.9991,101.3,106.465,539.289,112.559,1044.17,339.258,10613.6,7808.99,59.66,0,10.3364,50.8845,10766.8,14.239,11.4315,89016.3,158.191,101.3,1.60E-31,0.641252
370001,-2.36798,-7.87779,0.144359,-32.9991,101.3,106.525,539.168,112.613,1044.26,345.996,10623.1,7819.74,59.66,0,10.326,50.7815,10754.8,14.2315,11.4432,88600.1,158.191,101.3,1.57E-31,0.654046
370011,-2.99085,-7.83231,0.0846983,-32.9991,101.3,106.623,538.733,112.705,1044.28,353.033,10632.7,7830.19,59.66,0,10.3132,50.6857,10726.8,14.2292,11.4627,88029.9,158.191,101.3,1.55E-31,0.667701
370021,-3.41295,-7.81474,-0.00495579,-32.9991,101.3,106.742,538.114,112.813,1044.35,359.656,10640.9,7838.6,59.66,0,10.2986,50.6059,10688.4,14.23,11.4883,87384,158.191,101.3,1.52E-31,0.681917
370031,-3.70166,-7.81958,-0.109558,-32.9991,101.3,106.87,537.328,112.924,1044.33,367.137,10645,7842.87,59.66,0,10.2833,50.546,10643.4,14.2335,11.5244,86717.9,158.191,101.3,1.49E-31,0.696507
370041,-3.89473,-7.8404,-0.220745,-32.9991,101.3,107.002,536.459,113.036,1044.3,374.662,10644.6,7842.46,59.66,0,10.2679,50.5081,10595,14.2382,11.5678,86073.7,158.191,101.3,1.47E-31,0.711336
370051,-4.02693,-7.86973,-0.337599,-32.9991,101.3,107.135,535.526,113.146,1044.22,382.644,10639,7836.85,59.66,0,10.2531,50.4923,10544.8,14.2433,11.6184,85449.7,158.191,101.3,1.45E-31,0.726335
370061,-4.1201,-7.9097,-0.449798,-32.9991,101.3,107.269,534.567,113.249,1044.11,391.125,10628.3,7826.17,59.66,0,10.2394,50.497,10494.4,14.2479,11.676,84887.2,158.191,101.3,1.42E-31,0.741458
370071,-4.18757,-7.95485,-0.562998,-32.9991,101.3,107.401,533.602,113.343,1043.97,399.928,10612.7,7810.79,59.66,0,10.2271,50.5198,10444,14.2514,11.74,84377.4,158.191,101.3,1.40E-31,0.756651
370081,-4.23551,-8.00512,-0.672215,-32.9991,101.3,107.53,532.651,113.438,1043.84,408.931,10592.7,7791.11,59.66,0,10.2164,50.5583,10394.8,14.2533,11.8101,83905,158.191,101.3,1.38E-31,0.771909
370091,-4.27756,-8.06174,-0.774638,-32.9991,101.3,107.654,531.717,113.521,1043.68,418.358,10568.3,7767.36,59.66,0,10.2075,50.6097,10347.2,14.2537,11.8858,83496.5,158.191,101.3,1.36E-31,0.787039
370101,-4.3042,-8.12104,-0.870933,-32.9991,101.3,107.775,530.824,113.601,1043.53,428.226,10540.3,7740.2,59.66,0,10.2006,50.6713,10301.9,14.2523,11.9671,83100.7,158.191,101.3,1.35E-31,0.802496
370111,-4.32753,-8.18379,-0.961263,-32.9991,101.3,107.892,529.959,113.679,1043.37,438.182,10509,7709.96,59.66,0,10.1957,50.7409,10258.2,14.2494,12.0531,82725,158.191,101.3,1.33E-31,0.817659
370121,-4.34439,-8.24817,-1.04493,-32.9991,101.3,108.01,529.112,113.754,1043.19,448.622,10474.7,7677.08,59.66,0,10.1929,50.8158,10215.8,14.2453,12.1439,82350,158.191,101.3,1.31E-31,0.83269
370131,-4.35643,-8.31545,-1.11968,-32.9991,101.3,108.124,528.306,113.822,1043.04,459.262,10438.1,7642.2,59.66,0,10.192,50.894,10175.3,14.2398,12.2394,81938.3,158.191,101.3,1.30E-31,0.84725
370141,-4.36474,-8.38507,-1.18975,-32.9991,101.3,108.227,527.564,113.883,1042.89,470.069,10399.6,7605.77,59.66,0,10.1933,50.9727,10138.3,14.2332,12.3387,81585.1,158.191,101.3,1.28E-31,0.861892
370151,-4.36968,-8.45424,-1.25275,-32.9991,101.3,108.328,526.841,113.944,1042.72,481.214,10359.6,7568.09,59.66,0,10.1963,51.0504,10102.6,14.2263,12.4415,81195.7,158.191,101.3,1.27E-31,0.876776
370161,-4.37174,-8.52435,-1.31045,-32.9991,101.3,108.429,526.154,113.998,1042.55,492.633,10318.6,7529.76,59.66,0,10.201,51.1255,10068.6,14.2188,12.5474,80786.6,158.191,101.3,1.25E-31,0.891225
370171,-4.37142,-8.59486,-1.36499,-32.9991,101.3,108.523,525.515,114.052,1042.42,503.999,10277,7491.2,59.66,0,10.2075,51.1965,10036.8,14.2109,12.6559,80411,158.191,101.3,1.24E-31,0.905353
370181,-4.36906,-8.66472,-1.41559,-32.9991,101.3,108.612,524.892,114.101,1042.24,516.056,10234.7,7452.28,59.66,0,10.2154,51.2629,10006.5,14.2033,12.7667,80016.8,158.191,101.3,1.23E-31,0.9189
370191,-4.36482,-8.73311,-1.46089,-32.9991,101.3,108.702,524.295,114.151,1042.09,528.037,10192.3,7413.49,59.66,0,10.2244,51.3247,9977.27,14.1958,12.8771,79663.3,158.191,101.3,1.22E-31,0.932658
370201,-4.35926,-8.80124,-1.50379,-32.9991,101.3,108.792,523.728,114.201,1041.94,540.02,10150.1,7375.2,59.66,0,10.2346,51.3804,9949.29,14.1886,12.992,79300,158.191,101.3,1.21E-31,0.946111
370211,-4.35261,-8.86804,-1.54418,-32.9991,101.3,108.879,523.192,114.247,1041.83,552.13,10108.4,7337.6,59.66,0,10.2458,51.43,9922.49,14.1818,13.1081,78979.7,158.191,101.3,1.20E-31,0.959248
370221,-4.34488,-8.93231,-1.57894,-32.9991,101.3,108.961,522.684,114.29,1041.71,564.394,10067.1,7300.64,59.66,0,10.2576,51.4733,9897.23,14.1759,13.2254,78659.8,158.191,101.3,1.19E-31,0.973047
370231,-4.33662,-8.9959,-1.61328,-32.9991,101.3,109.043,522.189,114.335,1041.61,576.715,10026.5,7264.53,59.66,0,10.2701,51.5106,9872.32,14.1707,13.3436,78360.7,158.191,101.3,1.18E-31,0.986784
370241,-4.32802,-9.05816,-1.64582,-32.9991,101.3,109.122,521.72,114.375,1041.5,589.173,9986.56,7229.33,59.66,0,10.283,51.5414,9848.92,14.1666,13.4625,78065.7,158.191,101.3,1.17E-31,0.999843
370251,-4.31913,-9.11851,-1.67592,-32.9991,101.3,109.201,521.275,114.416,1041.42,601.508,9947.59,7195.24,59.66,0,10.2962,51.5663,9826.26,14.1634,13.5822,77797.8,158.191,101.3,1.16E-31,1.01244
370261,-4.31003,-9.17664,-1.70328,-32.9991,101.3,109.275,520.844,114.455,1041.34,614.041,9909.51,7162.17,59.66,0,10.3096,51.5852,9804.32,14.1613,13.7025,77558.6,158.191,101.3,1.15E-31,1.02501
370271,-4.30064,-9.23217,-1.72669,-32.9991,101.3,109.349,520.455,114.491,1041.3,626.321,9872.53,7130.32,59.66,0,10.323,51.5986,9784.12,14.1602,13.8233,77311.1,158.191,101.3,1.14E-31,1.03814
370281,-4.29131,-9.2867,-1.74943,-32.9991,101.3,109.42,520.052,114.528,1041.21,639.092,9836.28,7099.37,59.66,0,10.3363,51.6064,9764.09,14.1608,13.9444,77070.1,158.191,101.3,1.13E-31,1.05113
370291,-4.28202,-9.33929,-1.77026,-32.9991,101.3,109.489,519.699,114.563,1041.18,651.344,9801.52,7069.91,59.66,0,10.3494,51.6089,9745.47,14.1623,14.0655,76837.1,158.191,101.3,1.13E-31,1.06396
370301,-4.27275,-9.38988,-1.78889,-32.9991,101.3,109.555,519.358,114.594,1041.14,663.969,9767.84,7041.63,59.66,0,10.3622,51.6062,9727.85,14.1652,14.1865,76608.4,158.191,101.3,1.12E-31,1.07668
370311,-4.26355,-9.43873,-1.80609,-32.9991,101.3,109.619,519.032,114.627,1041.11,676.318,9735.44,7014.66,59.66,0,10.3745,51.5987,9710.82,14.1695,14.3067,76384.7,158.191,101.3,1.11E-31,1.08931
370321,-4.25474,-9.48564,-1.82214,-32.9991,101.3,109.683,518.723,114.658,1041.09,688.666,9704.37,6989.02,59.66,0,10.3862,51.5866,9694.36,14.175,14.4264,76165.5,158.191,101.3,1.10E-31,1.10183
370331,-4.2475,-9.53072,-1.83697,-32.9991,101.3,109.746,518.421,114.689,1041.06,701.052,9674.41,6964.54,59.66,0,10.3975,51.5707,9678.44,14.1819,14.5449,75952.2,158.191,101.3,1.10E-31,1.11425
370341,-4.23794,-9.57402,-1.85182,-32.9991,101.3,109.808,518.129,114.721,1041.04,713.277,9645.63,6941.24,59.66,0,10.4082,51.5513,9662.98,14.1899,14.6585,75753,158.191,101.3,1.09E-31,1.12677
370351,-4.22933,-9.61566,-1.87705,-32.9991,101.3,109.877,517.823,114.756,1041.05,725.24,9618.21,6919.25,59.66,0,10.4182,51.5292,9645.83,14.1988,14.7756,75527,158.191,101.3,1.09E-31,1.13918
370361,-4.22023,-9.65673,-1.93764,-32.9991,101.3,109.979,517.376,114.817,1041.05,737.263,9591.56,6898.01,59.66,0,10.4274,51.5075,9619.93,14.2087,14.8895,75339.7,158.191,101.3,1.08E-31,1.1511
370371,-4.21235,-9.69756,-2.02007,-32.9991,101.3,110.105,516.781,114.901,1041.01,749.465,9564.2,6876.03,59.66,0,10.4358,51.4913,9586.24,14.2194,15.001,75151.6,158.191,101.3,1.08E-31,1.16277
370381,-4.20376,-9.7397,-2.10123,-32.9991,101.3,110.235,516.134,114.988,1041.01,761.507,9535.65,6852.74,59.66,0,10.4434,51.4825,9549.73,14.2295,15.11,74979.8,158.191,101.3,1.07E-31,1.17461
370391,-4.19644,-9.78433,-2.18215,-32.9991,101.3,110.367,515.43,115.071,1040.95,774.157,9504.7,6827.09,59.66,0,10.4502,51.4829,9511.39,14.2391,15.2168,74804.5,158.191,101.3,1.07E-31,1.18635
370401,-4.18885,-9.83097,-2.2621,-32.9991,101.3,110.498,514.728,115.154,1040.93,786.547,9471.86,6799.43,59.66,0,10.4565,51.4919,9473.14,14.247,15.321,74637,158.191,101.3,1.06E-31,1.19778
370411,-4.18168,-9.87929,-2.33941,-32.9991,101.3,110.63,514.004,115.234,1040.85,799.37,9436.75,6769.54,59.66,0,10.4622,51.5083,9434.73,14.2534,15.4223,74475.5,158.191,101.3,1.06E-31,1.20889
370421,-4.1748,-9.92917,-2.41391,-32.9991,101.3,110.766,513.272,115.313,1040.79,812.038,9400.04,6738.04,59.66,0,10.4676,51.5305,9395.62,14.2578,15.5203,74320.3,158.191,101.3,1.05E-31,1.21968
370431,-4.16812,-9.98009,-2.48667,-32.9991,101.3,110.896,512.557,115.386,1040.71,825.139,9361.96,6705.17,59.66,0,10.4728,51.5565,9357.75,14.2598,15.6149,74170.3,158.191,101.3,1.05E-31,1.23013
370441,-4.15752,-10.0325,-2.5567,-32.9991,101.3,111.03,511.831,115.463,1040.63,838.326,9322.6,6671.06,59.66,0,10.4779,51.5859,9319.53,14.2598,15.7057,74024.3,158.191,101.3,1.04E-31,1.24023
370451,-4.15541,-10.0853,-2.62449,-32.9991,101.3,111.164,511.099,115.538,1040.52,851.71,9282.09,6635.88,59.66,0,10.4829,51.6175,9281.41,14.2575,15.7921,73883,158.191,101.3,1.04E-31,1.25001
370461,-4.14598,-10.1383,-2.68998,-32.9991,101.3,111.296,510.404,115.61,1040.46,864.704,9241.15,6600.22,59.66,0,10.488,51.6501,9244.38,14.2526,15.874,73744.5,158.191,101.3,1.04E-31,1.25944
370471,-4.14326,-10.192,-2.7538,-32.9991,101.3,111.431,509.698,115.682,1040.39,878.204,9199.59,6564.01,59.66,0,10.4931,51.6829,9206.91,14.2452,15.9513,73611.3,158.191,101.3,1.03E-31,1.26851
370481,-4.13507,-10.2454,-2.81604,-32.9991,101.3,111.564,509.008,115.754,1040.32,891.685,9157.57,6527.37,59.66,0,10.4981,51.7156,9170.29,14.2354,16.0235,73480.3,158.191,101.3,1.03E-31,1.27722
370491,-4.13192,-10.2992,-2.87621,-32.9991,101.3,111.702,508.313,115.827,1040.26,905.197,9115.23,6490.47,59.66,0,10.5033,51.7479,9133.2,14.2232,16.0903,73354.8,158.191,101.3,1.03E-31,1.28561
370501,-4.12479,-10.3526,-2.93518,-32.9991,101.3,111.837,507.63,115.897,1040.19,918.905,9072.66,6453.38,59.66,0,10.5085,51.779,9096.96,14.2086,16.1517,73232.4,158.191,101.3,1.02E-31,1.29363
370511,-4.12123,-10.4059,-2.99295,-32.9991,101.3,111.971,506.953,115.967,1040.11,932.734,9030.03,6416.29,59.66,0,10.5137,51.8086,9061.08,14.1914,16.2068,73115.1,158.191,101.3,1.02E-31,1.30131
370521,-4.11502,-10.4588,-3.04897,-32.9991,101.3,112.107,506.266,116.038,1040.01,946.892,8987.25,6379.14,59.66,0,10.519,51.8365,9025.1,14.1719,16.2564,73000.9,158.191,101.3,1.02E-31,1.30867
370531,-4.11127,-10.5114,-3.10393,-32.9991,101.3,112.246,505.593,116.11,1039.95,960.788,8944.86,6342.39,59.66,0,10.5244,51.8623,8988.99,14.1498,16.3018,72891,158.191,101.3,1.02E-31,1.31566
370541,-4.1057,-10.5634,-3.15687,-32.9991,101.3,112.384,504.924,116.179,1039.87,974.928,8902.56,6305.8,59.66,0,10.5298,51.886,8953.47,14.1255,16.3406,72786.1,158.191,101.3,1.01E-31,1.32234
370551,-4.10192,-10.6152,-3.21026,-32.9991,101.3,112.524,504.258,116.251,1039.81,989.019,8860.56,6269.54,59.66,0,10.5353,51.9076,8917.85,14.0986,16.3734,72685.1,158.191,101.3,1.01E-31,1.3287
370561,-4.09678,-10.6661,-3.26184,-32.9991,101.3,112.664,503.592,116.322,1039.73,1003.26,8818.83,6233.58,59.66,0,10.5406,51.9271,8882.33,14.0695,16.4023,72585.1,158.191,101.3,1.01E-31,1.33476
370571,-4.09327,-10.7169,-3.31364,-32.9991,101.3,112.804,502.926,116.392,1039.65,1017.71,8777.3,6197.9,59.66,0,10.546,51.9446,8847.02,14.038,16.4251,72493.1,158.191,101.3,1.01E-31,1.34044
370581,-4.08822,-10.7668,-3.36401,-32.9991,101.3,112.943,502.269,116.46,1039.57,1032.27,8736.2,6162.65,59.66,0,10.5513,51.9599,8812.01,14.0039,16.4407,72402,158.191,101.3,1.00E-31,1.34569
370591,-4.08495,-10.8162,-3.41364,-32.9991,101.3,113.084,501.612,116.53,1039.49,1046.82,8695.46,6127.82,59.66,0,10.5565,51.9731,8777.04,13.9674,16.4499,72314.8,158.191,101.3,1.00E-31,1.35059
370601,-4.08022,-10.8648,-3.46238,-32.9991,101.3,113.226,500.97,116.6,1039.45,1061.27,8655.28,6093.52,59.66,0,10.5617,51.9844,8742.21,13.928,16.453,72231,158.191,101.3,1.00E-31,1.35514
370611,-4.0769,-10.9128,-3.50975,-32.9991,101.3,113.369,500.327,116.669,1039.39,1075.86,8615.51,6059.65,59.66,0,10.5666,51.9937,8707.46,13.8862,16.4499,72150.4,158.191,101.3,9.98E-32,1.35932
370621,-4.0726,-10.96,-3.55678,-32.9991,101.3,113.508,499.697,116.736,1039.33,1090.53,8576.2,6026.26,59.66,0,10.5714,52.001,8673.51,13.8417,16.4416,72072.9,158.191,101.3,9.97E-32,1.36316
370631,-4.06914,-11.0066,-3.60262,-32.9991,101.3,113.65,499.065,116.804,1039.27,1105.31,8537.26,5993.26,59.66,0,10.5761,52.0067,8639.43,13.7948,16.4269,71998.4,158.191,101.3,9.95E-32,1.36664
370641,-4.06525,-11.0526,-3.64788,-32.9991,101.3,113.796,498.431,116.874,1039.21,1120.1,8498.84,5960.8,59.66,0,10.5807,52.0104,8605.2,13.7453,16.4072,71927.3,158.191,101.3,9.94E-32,1.36978
370651,-4.06167,-11.0978,-3.69188,-32.9991,101.3,113.941,497.805,116.943,1039.16,1134.88,8460.97,5928.91,59.66,0,10.5853,52.0124,8571.16,13.6934,16.3841,71858.6,158.191,101.3,9.92E-32,1.37258
370661,-4.05809,-11.1422,-3.73529,-32.9991,101.3,114.084,497.186,117.01,1039.1,1149.82,8423.6,5897.54,59.66,0,10.5896,52.0127,8537.7,13.639,16.3534,71793,158.191,101.3,9.91E-32,1.37504
370671,-4.05451,-11.1858,-3.77792,-32.9991,101.3,114.224,496.579,117.076,1039.06,1164.65,8386.77,5866.68,59.66,0,10.5937,52.0115,8504.61,13.5823,16.3184,71730.1,158.191,101.3,9.90E-32,1.37717
370681,-4.05106,-11.2287,-3.81992,-32.9991,101.3,114.371,495.965,117.145,1039.01,1179.59,8350.39,5836.27,59.66,0,10.5976,52.0091,8471.14,13.5234,16.2785,71670.1,158.191,101.3,9.88E-32,1.37896
370691,-4.04758,-11.2708,-3.86081,-32.9991,101.3,114.514,495.361,117.211,1038.96,1194.63,8314.55,5806.4,59.66,0,10.6013,52.0051,8438.26,13.4623,16.234,71612.9,158.191,101.3,9.87E-32,1.38043
370701,-4.0442,-11.3122,-3.90094,-32.9991,101.3,114.661,494.75,117.279,1038.89,1209.65,8279.08,5776.93,59.66,0,10.6048,52,8405.3,13.3992,16.185,71558.5,158.191,101.3,9.86E-32,1.38157
370711,-4.04079,-11.3528,-3.94031,-32.9991,101.3,114.806,494.179,117.344,1038.9,1224.25,8244.6,5748.33,59.66,0,10.6081,51.9936,8372.96,13.3335,16.1318,71506.6,158.191,101.3,9.86E-32,1.3824
370721,-4.0375,-11.3926,-3.97936,-32.9991,101.3,114.951,493.59,117.41,1038.86,1239.34,8210.29,5719.94,59.66,0,10.6111,51.9863,8340.6,13.2662,16.0747,71457.3,158.191,101.3,9.85E-32,1.38292
370731,-4.03417,-11.4317,-4.01702,-32.9991,101.3,115.092,493.018,117.474,1038.83,1254.26,8176.57,5692.11,59.66,0,10.6138,51.9778,8309.02,13.197,16.0137,71410.6,158.191,101.3,9.84E-32,1.38312
370741,-4.03505,-11.4699,-4.05405,-32.9991,101.3,115.236,492.441,117.539,1038.79,1269.28,8143.3,5664.73,59.66,0,10.6163,51.9684,8277.18,13.1266,15.9559,71366.1,158.191,101.3,9.83E-32,1.38303
370751,-4.03113,-11.5076,-4.09013,-32.9991,101.3,115.378,491.879,117.602,1038.77,1284.17,8110.63,5637.91,59.66,0,10.6186,51.9579,8245.89,13.0567,15.9099,71323,158.191,101.3,9.83E-32,1.38263
370761,-4.02647,-11.5445,-4.12578,-32.9991,101.3,115.521,491.324,117.666,1038.75,1299.08,8078.48,5611.6,59.66,0,10.6207,51.9465,8215.06,12.9872,15.8656,71284.6,158.191,101.3,9.82E-32,1.38196
370771,-4.0197,-11.5803,-4.15995,-32.9991,101.3,115.664,490.781,117.728,1038.74,1313.91,8046.82,5585.76,59.66,0,10.6225,51.9344,8184.66,12.9191,15.8281,71246.5,158.191,101.3,9.82E-32,1.38095
370781,-4.02112,-11.6155,-4.19303,-32.9991,101.3,115.803,490.225,117.79,1038.67,1329.14,8015.38,5560.17,59.66,0,10.624,51.9215,8154.57,12.853,15.7933,71210.9,158.191,101.3,9.81E-32,1.37968
370791,-4.01585,-11.6499,-4.22534,-32.9991,101.3,115.945,489.704,117.852,1038.68,1343.71,7984.92,5535.41,59.66,0,10.6251,51.9077,8124.82,12.7871,15.7567,71177.3,158.191,101.3,9.81E-32,1.37815
370801,-4.01149,-11.6835,-4.25661,-32.9991,101.3,116.086,489.184,117.912,1038.67,1358.51,7954.89,5511.07,59.66,0,10.6259,51.8931,8095.54,12.7228,15.721,71145.7,158.191,101.3,9.81E-32,1.37635
370811,-4.01263,-11.7163,-4.28714,-32.9991,101.3,116.227,488.676,117.974,1038.7,1373.09,7925.53,5487.32,59.66,0,10.6264,51.8777,8066.23,12.6594,15.6858,71116,158.191,101.3,9.80E-32,1.37429
370821,-4.00924,-11.7483,-4.31622,-32.9991,101.3,116.365,488.185,118.032,1038.73,1387.51,7896.79,5464.14,59.66,0,10.6266,51.8616,8037.85,12.5966,15.649,71088.2,158.191,101.3,9.80E-32,1.37199
370831,-4.00542,-11.7795,-4.34524,-32.9991,101.3,116.5,487.689,118.089,1038.71,1402.23,7868.4,5441.33,59.66,0,10.6265,51.8445,8010,12.5345,15.6119,71062.2,158.191,101.3,9.80E-32,1.36943
370841,-4.00115,-11.8099,-4.37273,-32.9991,101.3,116.635,487.202,118.146,1038.7,1416.84,7840.62,5419.06,59.66,0,10.6261,51.8268,7982.56,12.4728,15.5758,71038,158.191,101.3,9.80E-32,1.36664
370851,-3.99674,-11.8397,-4.39963,-32.9991,101.3,116.768,486.73,118.203,1038.71,1431.28,7813.54,5397.43,59.66,0,10.6254,51.8083,7955.65,12.4115,15.5361,71015.5,158.191,101.3,9.80E-32,1.36362
370861,-3.99785,-11.8683,-4.42519,-32.9991,101.3,116.899,486.276,118.257,1038.73,1445.62,7787.14,5376.39,59.66,0,10.6243,51.789,7929.51,12.3505,15.497,70995.1,158.191,101.3,9.80E-32,1.36037
370871,-3.99322,-11.8961,-4.45027,-32.9991,101.3,117.034,485.812,118.314,1038.73,1459.93,7761.27,5355.85,59.66,0,10.6229,51.769,7902.91,12.2894,15.456,70975.6,158.191,101.3,9.80E-32,1.3569
370881,-3.98776,-11.9232,-4.47403,-32.9991,101.3,117.167,485.374,118.37,1038.77,1473.9,7736.15,5335.93,59.66,0,10.6212,51.7488,7876.99,12.2284,15.4143,70958.2,158.191,101.3,9.80E-32,1.35322
370891,-3.98891,-11.9497,-4.49763,-32.9991,101.3,117.296,484.939,118.422,1038.8,1488.05,7711.62,5316.55,59.66,0,10.6191,51.7276,7851.68,12.1681,15.3727,70942.7,158.191,101.3,9.81E-32,1.34934
370901,-3.98509,-11.975,-4.52024,-32.9991,101.3,117.419,484.516,118.472,1038.81,1502.18,7687.56,5297.58,59.66,0,10.6166,51.7061,7827.35,12.1077,15.3287,70927.9,158.191,101.3,9.81E-32,1.34527
370911,-3.98055,-11.9999,-4.54202,-32.9991,101.3,117.546,484.11,118.525,1038.87,1515.76,7664.34,5279.31,59.66,0,10.6138,51.6841,7802.89,12.0474,15.2831,70915.2,158.191,101.3,9.81E-32,1.34101
370921,-3.9815,-12.0239,-4.56305,-32.9991,101.3,117.673,483.695,118.576,1038.89,1529.7,7641.56,5261.47,59.66,0,10.6108,51.6616,7778.64,11.9874,15.2382,70903.8,158.191,101.3,9.81E-32,1.33656
370931,-3.97721,-12.047,-4.58334,-32.9991,101.3,117.797,483.297,118.627,1038.93,1543.27,7619.38,5244.13,59.66,0,10.6075,51.6389,7755.05,11.9278,15.195,70893.9,158.191,101.3,9.82E-32,1.33195
370941,-3.97152,-12.0694,-4.60246,-32.9991,101.3,117.917,482.907,118.675,1038.95,1556.87,7597.66,5227.2,59.66,0,10.6039,51.6158,7732.42,11.8682,15.1491,70885.5,158.191,101.3,9.82E-32,1.32717
