Time,20-3 - Temperature,17-2 - Temperature,61-3 - Temperature,53-3 - Temperature,53-3 - Pressure,69 - Temperature,69 - Pressure,81 - Temperature,81 - Pressure,5-2 - Mass Flow,108 - Mass Flow,89-2 - Mass Flow,1 - Temperature,1 - Mass Flow,LIC506 - PV,LIC502 - PV,81 - Mass Flow,86 - Temperature,71-2 - Temperature,67 - Mass Flow,34-2 - Temperature,34-2 - Pressure,34-2 - Mass Flow,LIC508 - OP
[seconds],[C],[C],[C],[C],[kPa],[C],[kPa],[C],[kPa],[kg/h],[kg/h],[kg/h],[C],[kg/h],[%],[%],[kg/h],[C],[C],[kg/h],[C],[kPa],[kg/h],[%]
369941,4.00307,-8.72031,-0.477927,-32.9991,101.3,106.62,537.749,112.759,1043.72,301.292,10643.2,7824.69,59.66,0,10.3462,51.1863,10685.2,14.3398,11.4719,85876,158.191,101.3,1.70E-31,0.610722
369951,3.27289,-8.65355,-0.348226,-32.9991,101.3,106.594,537.837,112.735,1043.75,309.775,10627.7,7812.55,59.66,0,10.3476,51.1607,10692.5,14.3159,11.4573,87481.1,158.191,101.3,1.69E-31,0.612515
369961,1.72064,-8.42249,-0.104241,-32.9991,101.3,106.497,538.383,112.635,1043.84,317.698,10615.4,7803.41,59.66,0,10.348,51.1185,10725.7,14.2923,11.4451,89180.6,158.191,101.3,1.67E-31,0.616125
369971,-0.290291,-8.11382,0.155798,-32.9991,101.3,106.389,539.183,112.517,1043.99,324.827,10610.2,7801.07,59.66,0,10.3465,51.0484,10770.2,14.2711,11.4383,90439.3,158.191,101.3,1.64E-31,0.623495
369981,-2.38277,-7.81256,0.356013,-32.9991,101.3,106.322,539.913,112.437,1044.16,331.417,10614.6,7807.79,59.66,0,10.3414,50.945,10807.4,14.2549,11.4386,91010.2,158.191,101.3,1.61E-31,0.635298
369991,-4.32138,-7.56458,0.45895,-32.9991,101.3,106.321,540.335,112.423,1044.34,337.439,10628.3,7822.88,59.66,0,10.3316,50.8155,10823.8,14.2457,11.4516,90991.2,158.191,101.3,1.57E-31,0.650435
370001,-5.90528,-7.38345,0.470118,-32.9991,101.3,106.388,540.319,112.484,1044.52,343.19,10647.7,7842.72,59.66,0,10.3167,50.6765,10814.6,14.2443,11.4739,90582.8,158.191,101.3,1.53E-31,0.668858
370011,-7.08622,-7.26765,0.408034,-32.9991,101.3,106.505,539.876,112.596,1044.61,349.354,10668.2,7862.91,59.66,0,10.2977,50.5443,10783,14.2504,11.511,89810.7,158.191,101.3,1.49E-31,0.69016
370021,-7.91329,-7.20536,0.297432,-32.9991,101.3,106.66,539.045,112.743,1044.62,355.952,10686.2,7879.92,59.66,0,10.2754,50.4325,10732.2,14.2628,11.5617,88893,158.191,101.3,1.45E-31,0.712678
370031,-8.47209,-7.17686,0.156246,-32.9991,101.3,106.832,537.972,112.903,1044.58,362.963,10699.6,7891.81,59.66,0,10.2513,50.3472,10670.5,14.2793,11.6258,87908.5,158.191,101.3,1.41E-31,0.73528
370041,-8.84521,-7.17636,0.00170461,-32.9991,101.3,107.013,536.736,113.064,1044.48,370.581,10706.4,7896.93,59.66,0,10.2266,50.2929,10602.3,14.2984,11.7031,86911.9,158.191,101.3,1.37E-31,0.757224
370051,-9.10145,-7.19398,-0.151742,-32.9991,101.3,107.193,535.43,113.215,1044.34,378.732,10706,7894.63,59.66,0,10.2022,50.27,10532.4,14.3184,11.7928,86009.5,158.191,101.3,1.34E-31,0.78018
370061,-9.28507,-7.22855,-0.307727,-32.9991,101.3,107.372,534.114,113.354,1044.2,387.221,10698.5,7885.23,59.66,0,10.1792,50.276,10462.7,14.3379,11.8942,85181.6,158.191,101.3,1.31E-31,0.802817
370071,-9.42021,-7.27176,-0.453346,-32.9991,101.3,107.55,532.762,113.487,1043.96,396.835,10683.6,7868.61,59.66,0,10.158,50.3079,10393.3,14.357,12.0068,84347.3,158.191,101.3,1.28E-31,0.825915
370081,-9.52307,-7.32492,-0.58656,-32.9991,101.3,107.711,531.505,113.605,1043.77,406.441,10662.4,7845.9,59.66,0,10.1392,50.3614,10329.2,14.3742,12.1304,83659.5,158.191,101.3,1.25E-31,0.849207
370091,-9.60291,-7.38599,-0.714017,-32.9991,101.3,107.868,530.268,113.709,1043.5,417.177,10635,7817.31,59.66,0,10.1231,50.4323,10267.5,14.3904,12.2647,83036.7,158.191,101.3,1.22E-31,0.871952
370101,-9.66423,-7.45132,-0.822528,-32.9991,101.3,108.015,529.153,113.802,1043.32,427.488,10603.2,7784.54,59.66,0,10.1098,50.5152,10211.3,14.4047,12.4093,82390.7,158.191,101.3,1.20E-31,0.895208
370111,-9.71106,-7.52168,-0.91621,-32.9991,101.3,108.149,528.096,113.884,1043.05,439.117,10566.7,7747.58,59.66,0,10.0997,50.6063,10160,14.4185,12.564,81823.9,158.191,101.3,1.17E-31,0.918522
370121,-9.74643,-7.59761,-1.00139,-32.9991,101.3,108.271,527.152,113.957,1042.84,450.443,10527.2,7708,59.66,0,10.0924,50.7013,10113.9,14.4316,12.7283,81299.5,158.191,101.3,1.15E-31,0.941141
370131,-9.77073,-7.67239,-1.06563,-32.9991,101.3,108.384,526.289,114.018,1042.6,462.483,10485,7666.15,59.66,0,10.0881,50.7966,10072.7,14.4449,12.902,80668,158.191,101.3,1.13E-31,0.964838
370141,-9.78631,-7.74958,-1.12167,-32.9991,101.3,108.486,525.502,114.072,1042.37,474.732,10441.2,7623.17,59.66,0,10.0867,50.8887,10035.2,14.4589,13.0845,80105.1,158.191,101.3,1.11E-31,0.987972
370151,-9.79456,-7.82775,-1.16969,-32.9991,101.3,108.582,524.802,114.119,1042.16,487.161,10396.6,7579.71,59.66,0,10.0879,50.9754,10002.1,14.474,13.2752,79497.8,158.191,101.3,1.09E-31,1.01024
370161,-9.79563,-7.9038,-1.20838,-32.9991,101.3,108.672,524.19,114.161,1042.01,499.49,10351.8,7536.52,59.66,0,10.0916,51.0551,9972.36,14.4905,13.4739,78946.6,158.191,101.3,1.07E-31,1.03299
370171,-9.79102,-7.9826,-1.34344,-32.9991,101.3,108.839,523.301,114.247,1041.81,512.482,10307.2,7493.93,59.66,0,10.0975,51.1306,9924.61,14.5095,13.6797,78300.6,158.191,101.3,1.05E-31,1.05537
370181,-9.78165,-8.06186,-1.56775,-32.9991,101.3,109.084,521.922,114.427,1041.5,526.468,10260,7449.33,59.66,0,10.105,51.2129,9849.9,14.5312,13.8917,77701.9,158.191,101.3,1.03E-31,1.07699
370191,-9.76808,-8.14803,-1.81234,-32.9991,101.3,109.363,520.251,114.632,1041.19,540.889,10207.5,7399.53,59.66,0,10.1138,51.3137,9759.87,14.5539,14.1099,77151.4,158.191,101.3,1.02E-31,1.09939
370201,-9.75144,-8.24569,-2.06104,-32.9991,101.3,109.648,518.455,114.836,1040.85,556.216,10146.5,7341.72,59.66,0,10.124,51.4405,9665.17,14.576,14.334,76587.4,158.191,101.3,1.00E-31,1.12208
370211,-9.73221,-8.35389,-2.30707,-32.9991,101.3,109.947,516.559,115.044,1040.48,572.444,10076.6,7275.33,59.66,0,10.1357,51.5928,9566.73,14.5968,14.5678,76035.4,158.191,101.3,9.87E-32,1.14435
370221,-9.71108,-8.4714,-2.54904,-32.9991,101.3,110.263,514.572,115.241,1040.03,590.163,9998.29,7201,59.66,0,10.1492,51.7651,9464.78,14.6157,14.8072,75527.6,158.191,101.3,9.73E-32,1.16568
370231,-9.68823,-8.59571,-2.78516,-32.9991,101.3,110.569,512.619,115.43,1039.58,608.502,9912.18,7119.35,59.66,0,10.1647,51.9536,9365.85,14.6321,15.053,75045.9,158.191,101.3,9.59E-32,1.18687
370241,-9.66429,-8.72767,-3.01581,-32.9991,101.3,110.899,510.605,115.624,1039.09,627.791,9818.98,7031.16,59.66,0,10.1826,52.1543,9263.5,14.646,15.3048,74571.2,158.191,101.3,9.46E-32,1.20725
370251,-9.63934,-8.86506,-3.23997,-32.9991,101.3,111.231,508.61,115.811,1038.62,647.974,9719.6,6937.31,59.66,0,10.2025,52.3627,9162.22,14.6571,15.5624,74132.5,158.191,101.3,9.34E-32,1.22691
370261,-9.61371,-9.00766,-3.45582,-32.9991,101.3,111.559,506.656,115.993,1038.15,668.953,9614.52,6838.3,59.66,0,10.2248,52.5755,9063.38,14.6659,15.825,73715.3,158.191,101.3,9.22E-32,1.24608
370271,-9.58768,-9.15395,-3.66126,-32.9991,101.3,111.905,504.669,116.176,1037.63,691.066,9504.29,6734.8,59.66,0,10.2494,52.7891,8962.91,14.6733,16.0927,73287.4,158.191,101.3,9.10E-32,1.2648
370281,-9.56154,-9.30461,-3.86156,-32.9991,101.3,112.244,502.713,116.358,1037.07,714.307,9389.88,6627.78,59.66,0,10.2762,52.9995,8865.23,14.6796,16.3638,72877,158.191,101.3,8.99E-32,1.28231
370291,-9.53503,-9.45662,-4.04986,-32.9991,101.3,112.591,500.795,116.532,1036.55,737.989,9272.32,6518.15,59.66,0,10.3051,53.2045,8768.65,14.6849,16.6381,72497.4,158.191,101.3,8.88E-32,1.29963
370301,-9.50869,-9.61108,-4.23191,-32.9991,101.3,112.941,498.91,116.71,1036.05,762.49,9152.22,6406.54,59.66,0,10.336,53.402,8673.37,14.6893,16.9103,72102.1,158.191,101.3,8.78E-32,1.31657
370311,-9.48258,-9.76655,-4.40677,-32.9991,101.3,113.293,497.064,116.879,1035.57,787.69,9030.43,6293.86,59.66,0,10.3688,53.5888,8579.46,14.6938,17.1905,71709,158.191,101.3,8.68E-32,1.33276
370321,-9.45682,-9.92223,-4.57605,-32.9991,101.3,113.647,495.236,117.052,1035.06,813.943,8907.06,6180.18,59.66,0,10.4033,53.7646,8486.83,14.699,17.4692,71330.9,158.191,101.3,8.59E-32,1.3479
370331,-9.43134,-10.0777,-4.7375,-32.9991,101.3,114.009,493.437,117.22,1034.59,840.771,8783.27,6066.58,59.66,0,10.4389,53.9274,8394.74,14.7051,17.7478,70961.2,158.191,101.3,8.50E-32,1.36252
370341,-9.40634,-10.2327,-4.89453,-32.9991,101.3,114.365,491.65,117.385,1034.04,869.087,8658.91,5953.04,59.66,0,10.4758,54.0765,8304.55,14.7129,18.024,70590.3,158.191,101.3,8.41E-32,1.37637
370351,-9.38186,-10.3867,-5.04647,-32.9991,101.3,114.734,489.916,117.553,1033.6,897.012,8535.27,5840.58,59.66,0,10.5136,54.212,8215.03,14.7218,18.2987,70236.1,158.191,101.3,8.33E-32,1.38951
370361,-9.35795,-10.5393,-5.19354,-32.9991,101.3,115.107,488.179,117.718,1033.09,926.701,8411.84,5728.9,59.66,0,10.552,54.3335,8126.13,14.7332,18.5748,69898.7,158.191,101.3,8.24E-32,1.40209
370371,-9.33463,-10.6904,-5.33556,-32.9991,101.3,115.48,486.49,117.882,1032.64,956.235,8289.62,5618.79,59.66,0,10.5909,54.4409,8038.79,14.7471,18.8457,69560.4,158.191,101.3,8.17E-32,1.41425
370381,-9.31204,-10.8398,-5.47499,-32.9991,101.3,115.856,484.823,118.045,1032.18,986.667,8168.69,5510.38,59.66,0,10.63,54.5341,7952.17,14.7635,19.1127,69236.1,158.191,101.3,8.09E-32,1.42574
370391,-9.2903,-10.9873,-5.61085,-32.9991,101.3,116.238,483.175,118.211,1031.75,1017.59,8049.25,5403.78,59.66,0,10.6692,54.6141,7866.04,14.7827,19.3752,68923,158.191,101.3,8.02E-32,1.43658
370401,-9.26937,-11.1326,-5.74207,-32.9991,101.3,116.624,481.557,118.374,1031.34,1048.99,7931.36,5299.07,59.66,0,10.7082,54.6816,7780.86,14.8047,19.6325,68620.5,158.191,101.3,7.95E-32,1.44684
370411,-9.24925,-11.2757,-5.8696,-32.9991,101.3,117.013,479.957,118.533,1030.92,1081.22,7815.18,5196.37,59.66,0,10.7468,54.7367,7696.53,14.8295,19.884,68329.8,158.191,101.3,7.88E-32,1.45657
370421,-9.22997,-11.4168,-5.99323,-32.9991,101.3,117.403,478.391,118.693,1030.52,1113.86,7700.94,5095.87,59.66,0,10.7849,54.7801,7613.75,14.8575,20.1311,68040,158.191,101.3,7.81E-32,1.46578
370431,-9.21157,-11.5552,-6.11331,-32.9991,101.3,117.796,476.863,118.853,1030.16,1146.83,7588.8,4997.62,59.66,0,10.8222,54.8128,7531.79,14.8881,20.3703,67761.2,158.191,101.3,7.75E-32,1.4743
370441,-9.19397,-11.6913,-6.22866,-32.9991,101.3,118.194,475.335,119.012,1029.76,1180.69,7478.45,4901.47,59.66,0,10.8588,54.8351,7450.5,14.9217,20.5994,67490.4,158.191,101.3,7.69E-32,1.48222
370451,-9.17606,-11.8244,-6.34008,-32.9991,101.3,118.589,473.863,119.168,1029.4,1214.52,7370.55,4807.89,59.66,0,10.8944,54.8473,7371.32,14.9576,20.8221,67226.4,158.191,101.3,7.63E-32,1.4896
370461,-9.16046,-11.9548,-6.44727,-32.9991,101.3,118.984,472.435,119.32,1029.08,1248.8,7265.1,4716.86,59.66,0,10.929,54.85,7293.5,14.9957,21.0369,66968.8,158.191,101.3,7.57E-32,1.49651
370471,-9.145,-12.0825,-6.55131,-32.9991,101.3,119.383,471.006,119.474,1028.72,1283.83,7161.83,4628.16,59.66,0,10.9622,54.844,7216.19,15.0364,21.242,66716.2,158.191,101.3,7.52E-32,1.50296
370481,-9.1305,-12.2083,-6.65219,-32.9991,101.3,119.785,469.641,119.627,1028.46,1318.47,7061.4,4542.27,59.66,0,10.9941,54.8299,7140.29,15.0782,21.4359,66469.6,158.191,101.3,7.46E-32,1.50894
370491,-9.11664,-12.3296,-6.74964,-32.9991,101.3,120.189,468.297,119.78,1028.21,1353.49,6963.32,4458.77,59.66,0,11.0248,54.8086,7065,15.1213,21.619,66229.7,158.191,101.3,7.41E-32,1.51459
370501,-9.10345,-12.4487,-6.84467,-32.9991,101.3,120.593,466.967,119.93,1027.93,1389.14,6867.37,4377.48,59.66,0,11.0539,54.7809,6990.95,15.165,21.7875,65994,158.191,101.3,7.36E-32,1.51976
370511,-9.09102,-12.5651,-6.93603,-32.9991,101.3,120.998,465.679,120.078,1027.69,1424.73,6773.96,4298.68,59.66,0,11.0814,54.747,6918.26,15.2083,21.9482,65765.3,158.191,101.3,7.31E-32,1.52446
370521,-9.07912,-12.6785,-7.02507,-32.9991,101.3,121.403,464.415,120.225,1027.45,1460.7,6682.97,4222.29,59.66,0,11.1074,54.7075,6846.37,15.2516,22.0987,65542.9,158.191,101.3,7.27E-32,1.52872
370531,-9.06783,-12.7892,-7.11185,-32.9991,101.3,121.815,463.165,120.373,1027.23,1496.98,6594.24,4148.11,59.66,0,11.1319,54.6635,6774.84,15.2938,22.2367,65327.1,158.191,101.3,7.22E-32,1.53258
370541,-9.05709,-12.897,-7.19585,-32.9991,101.3,122.224,461.947,120.521,1027.02,1533.19,6507.7,4076.05,59.66,0,11.1547,54.6155,6704.61,15.3346,22.3627,65117.1,158.191,101.3,7.18E-32,1.53607
370551,-9.05084,-13.0021,-7.27692,-32.9991,101.3,122.634,460.759,120.664,1026.84,1569.75,6423.39,4006.13,59.66,0,11.176,54.564,6635.39,15.3725,22.4771,64913.2,158.191,101.3,7.14E-32,1.53917
370561,-9.03961,-13.1044,-7.35582,-32.9991,101.3,123.046,459.6,120.809,1026.67,1606.17,6341.22,3938.23,59.66,0,11.1955,54.5096,6567.24,15.4075,22.5796,64716.7,158.191,101.3,7.10E-32,1.54191
370571,-9.03073,-13.2039,-7.4326,-32.9991,101.3,123.456,458.471,120.952,1026.54,1642.67,6261.16,3872.29,59.66,0,11.2135,54.4527,6499.84,15.4383,22.6707,64524.2,158.191,101.3,7.06E-32,1.54437
370581,-9.02194,-13.3006,-7.50662,-32.9991,101.3,123.867,457.362,121.092,1026.4,1679.31,6183.01,3808.09,59.66,0,11.2295,54.3939,6433.41,15.4646,22.7504,64335.7,158.191,101.3,7.02E-32,1.54646
370591,-9.01342,-13.3949,-7.57851,-32.9991,101.3,124.286,456.268,121.235,1026.27,1715.96,6106.83,3745.76,59.66,0,11.2442,54.3333,6367.29,15.4856,22.8189,64153.5,158.191,101.3,6.98E-32,1.54821
370601,-9.00553,-13.4875,-7.6477,-32.9991,101.3,124.703,455.206,121.377,1026.16,1752.62,6032.39,3685.03,59.66,0,11.2573,54.2718,6302.88,15.5007,22.8765,63976.1,158.191,101.3,6.95E-32,1.54961
370611,-8.99795,-13.5765,-7.71412,-32.9991,101.3,125.112,454.163,121.517,1026.03,1789.49,5959.86,3626.05,59.66,0,11.2689,54.2088,6239.38,15.5091,22.9236,63802.8,158.191,101.3,6.91E-32,1.55068
370621,-8.99067,-13.6628,-7.7792,-32.9991,101.3,125.526,453.136,121.655,1025.92,1826.36,5889.11,3568.64,59.66,0,11.2788,54.1451,6176.24,15.5104,22.9606,63634.1,158.191,101.3,6.88E-32,1.55143
370631,-8.98373,-13.747,-7.84178,-32.9991,101.3,125.939,452.157,121.791,1025.86,1862.8,5820.11,3512.76,59.66,0,11.2874,54.0814,6114.61,15.5037,22.9876,63469.9,158.191,101.3,6.85E-32,1.55187
370641,-8.97706,-13.8287,-7.90202,-32.9991,101.3,126.355,451.191,121.926,1025.82,1899.28,5752.86,3458.42,59.66,0,11.2946,54.0173,6052.95,15.4886,23.0034,63310.2,158.191,101.3,6.82E-32,1.55202
370651,-8.96581,-13.9082,-7.96022,-32.9991,101.3,126.771,450.252,122.061,1025.78,1935.72,5687.22,3405.54,59.66,0,11.3005,53.953,5992.84,15.4649,23.0124,63154.5,158.191,101.3,6.79E-32,1.5519
370661,-8.96397,-13.9854,-8.01592,-32.9991,101.3,127.183,449.333,122.194,1025.74,1972.1,5623.15,3354.05,59.66,0,11.3052,53.8888,5933.65,15.4327,23.0133,63002,158.191,101.3,6.76E-32,1.55148
370671,-8.95559,-14.0602,-8.07052,-32.9991,101.3,127.59,448.449,122.325,1025.75,2008.24,5560.79,3304.02,59.66,0,11.3086,53.8246,5875.48,15.3913,23.0039,62855.1,158.191,101.3,6.73E-32,1.55077
370681,-8.95105,-14.1329,-8.12279,-32.9991,101.3,128.006,447.575,122.457,1025.75,2044.33,5499.81,3255.18,59.66,0,11.3108,53.7611,5817.43,15.3406,22.9857,62711.9,158.191,101.3,6.70E-32,1.5498
370691,-8.94583,-14.2033,-8.17287,-32.9991,101.3,128.416,446.73,122.586,1025.76,2080.25,5440.37,3207.68,59.66,0,11.3118,53.6979,5760.89,15.2803,22.96,62572.9,158.191,101.3,6.68E-32,1.54858
370701,-8.93996,-14.2718,-8.22142,-32.9991,101.3,128.827,445.903,122.714,1025.79,2116.07,5382.36,3161.44,59.66,0,11.312,53.6352,5705.06,15.212,22.9389,62437.5,158.191,101.3,6.65E-32,1.54712
370711,-8.93573,-14.338,-8.26759,-32.9991,101.3,129.237,445.094,122.841,1025.81,2151.82,5325.66,3116.32,59.66,0,11.3111,53.5732,5649.95,15.1395,22.9295,62306.1,158.191,101.3,6.63E-32,1.54542
370721,-8.9303,-14.4022,-8.31204,-32.9991,101.3,129.642,444.306,122.967,1025.82,2187.28,5270.32,3072.4,59.66,0,11.3092,53.5116,5596.33,15.0656,22.9267,62178.2,158.191,101.3,6.61E-32,1.54349
370731,-8.92591,-14.4643,-8.35515,-32.9991,101.3,130.047,443.547,123.092,1025.88,2222.48,5216.38,3029.66,59.66,0,11.3064,53.4508,5543.3,14.9912,22.9254,62053.8,158.191,101.3,6.58E-32,1.54135
370741,-8.92123,-14.5245,-8.39619,-32.9991,101.3,130.451,442.801,123.216,1025.93,2257.52,5163.68,2987.98,59.66,0,11.3027,53.3907,5490.86,14.9169,22.9247,61932.9,158.191,101.3,6.56E-32,1.539
370751,-8.91675,-14.5825,-8.43554,-32.9991,101.3,130.846,442.085,123.334,1025.99,2292.54,5112.3,2947.44,59.66,0,11.298,53.3312,5440.01,14.8432,22.9244,61815.3,158.191,101.3,6.54E-32,1.53644
370761,-8.91223,-14.6388,-8.47337,-32.9991,101.3,131.244,441.391,123.454,1026.08,2326.98,5062.22,2907.98,59.66,0,11.2926,53.2724,5389.65,14.7702,22.9192,61699,158.191,101.3,6.52E-32,1.5337
370771,-8.90857,-14.6935,-8.5092,-32.9991,101.3,131.634,440.722,123.57,1026.17,2361.23,5013.46,2869.64,59.66,0,11.2862,53.2142,5340.63,14.6966,22.9099,61589.2,158.191,101.3,6.50E-32,1.53077
370781,-8.90354,-14.7461,-8.54395,-32.9991,101.3,132.024,440.062,123.686,1026.24,2395.49,4965.96,2832.39,59.66,0,11.2789,53.1564,5292.73,14.6227,22.8963,61480.9,158.191,101.3,6.48E-32,1.52767
370791,-8.90036,-14.7969,-8.57661,-32.9991,101.3,132.406,439.425,123.798,1026.32,2429.44,4919.69,2796.17,59.66,0,11.271,53.0994,5245.61,14.5473,22.8787,61375.5,158.191,101.3,6.46E-32,1.52438
370801,-8.8956,-14.8458,-8.60778,-32.9991,101.3,132.789,438.808,123.91,1026.41,2463.1,4874.77,2761.06,59.66,0,11.2621,53.0429,5199.45,14.47,22.8572,61272.6,158.191,101.3,6.45E-32,1.5209
370811,-8.89227,-14.893,-8.63792,-32.9991,101.3,133.162,438.224,124.019,1026.53,2496.33,4831.2,2727.04,59.66,0,11.2524,52.9869,5154.76,14.3904,22.8317,61173.5,158.191,101.3,6.43E-32,1.51728
370821,-8.8881,-14.9387,-8.66622,-32.9991,101.3,133.54,437.641,124.129,1026.63,2529.49,4788.74,2693.95,59.66,0,11.242,52.9317,5110.14,14.3082,22.8012,61076.6,158.191,101.3,6.41E-32,1.51354
370831,-8.88448,-14.9826,-8.693,-32.9991,101.3,133.909,437.092,124.236,1026.76,2562.1,4747.59,2661.92,59.66,0,11.2309,52.8772,5066.97,14.2227,22.7685,60982.5,158.191,101.3,6.40E-32,1.50966
370841,-8.88082,-15.0249,-8.71866,-32.9991,101.3,134.276,436.554,124.34,1026.89,2594.67,4707.67,2630.9,59.66,0,11.2191,52.8231,5024.52,14.1334,22.731,60891.2,158.191,101.3,6.38E-32,1.50565
370851,-8.877,-15.0656,-8.74308,-32.9991,101.3,134.64,436.023,124.444,1027,2626.95,4668.92,2600.85,59.66,0,11.2067,52.7697,4982.58,14.0409,22.688,60802,158.191,101.3,6.37E-32,1.50152
370861,-8.87383,-15.105,-8.76632,-32.9991,101.3,134.999,435.512,124.546,1027.12,2658.89,4631.34,2571.74,59.66,0,11.1937,52.7169,4941.76,13.9442,22.6434,60715.7,158.191,101.3,6.36E-32,1.49728
370871,-8.86998,-15.1427,-8.78887,-32.9991,101.3,135.342,435.022,124.644,1027.23,2690.73,4594.86,2543.53,59.66,0,11.1802,52.6647,4902.82,13.844,22.5965,60631.7,158.191,101.3,6.34E-32,1.49293
370881,-8.87132,-15.1791,-8.80973,-32.9991,101.3,135.695,434.559,124.743,1027.4,2721.73,4559.55,2516.22,59.66,0,11.1662,52.6135,4863.61,13.7401,22.545,60550,158.191,101.3,6.33E-32,1.48848
370891,-8.86401,-15.2142,-8.82974,-32.9991,101.3,136.043,434.101,124.839,1027.56,2752.65,4525.4,2489.88,59.66,0,11.1518,52.5627,4825.09,13.6323,22.4899,60470.7,158.191,101.3,6.32E-32,1.48394
370901,-8.86401,-15.2477,-8.84877,-32.9991,101.3,136.382,433.658,124.934,1027.7,2783.32,4492.23,2464.34,59.66,0,11.1371,52.5126,4787.74,13.521,22.4313,60393.6,158.191,101.3,6.31E-32,1.47931
370911,-8.8605,-15.28,-8.86664,-32.9991,101.3,136.716,433.224,125.026,1027.83,2813.85,4460.03,2439.59,59.66,0,11.122,52.4633,4751.41,13.4061,22.3694,60318.7,158.191,101.3,6.30E-32,1.47461
370921,-8.85489,-15.311,-8.88335,-32.9991,101.3,137.048,432.834,125.117,1028.04,2843.37,4429.11,2415.84,59.66,0,11.1067,52.4145,4715.84,13.2875,22.3044,60245.9,158.191,101.3,6.28E-32,1.46983
370931,-8.85489,-15.3408,-8.89953,-32.9991,101.3,137.374,432.431,125.207,1028.19,2873.09,4399.02,2392.81,59.66,0,11.0911,52.3663,4680.9,13.1661,22.2363,60175.2,158.191,101.3,6.27E-32,1.46499
370941,-8.84979,-15.3692,-8.91466,-32.9991,101.3,137.697,432.044,125.295,1028.35,2902.39,4369.91,2370.55,59.66,0,11.0752,52.3189,4646.61,13.0413,22.1653,60106.6,158.191,101.3,6.26E-32,1.4601
370951,-8.84312,-15.3964,-8.92891,-32.9991,101.3,138.016,431.672,125.381,1028.52,2931.35,4341.75,2349.04,59.66,0,11.0591,52.2721,4613.12,12.9133,22.0916,60039.9,158.191,101.3,6.26E-32,1.45515
