Time,20-3 - Temperature,17-2 - Temperature,61-3 - Temperature,53-3 - Temperature,53-3 - Pressure,69 - Temperature,69 - Pressure,81 - Temperature,81 - Pressure,5-2 - Mass Flow,108 - Mass Flow,89-2 - Mass Flow,1 - Temperature,1 - Mass Flow,LIC506 - PV,LIC502 - PV,81 - Mass Flow,86 - Temperature,71-2 - Temperature,67 - Mass Flow,34-2 - Temperature,34-2 - Pressure,34-2 - Mass Flow,LIC508 - OP
[seconds],[C],[C],[C],[C],[kPa],[C],[kPa],[C],[kPa],[kg/h],[kg/h],[kg/h],[C],[kg/h],[%],[%],[kg/h],[C],[C],[kg/h],[C],[kPa],[kg/h],[%]
369951,3.27289,-8.65355,-0.348226,-32.9991,101.3,106.594,537.837,112.735,1043.75,309.775,10627.7,7812.55,59.66,0,10.3476,51.1607,10692.5,14.3159,11.4573,87481.1,158.191,101.3,1.69E-31,0.612515
369961,1.72063,-8.42249,-0.10424,-32.9991,101.3,106.497,538.383,112.635,1043.84,317.698,10615.4,7803.41,59.66,0,10.348,51.1185,10725.7,14.2923,11.4451,89180.7,158.191,101.3,1.67E-31,0.616125
369971,-0.29032,-8.11381,0.155802,-32.9991,101.3,106.389,539.183,112.517,1043.99,324.827,10610.2,7801.07,59.66,0,10.3465,51.0484,10770.2,14.2711,11.4383,90439.4,158.191,101.3,1.64E-31,0.623495
369981,-2.38282,-7.81255,0.356018,-32.9991,101.3,106.322,539.913,112.437,1044.16,331.417,10614.6,7807.79,59.66,0,10.3414,50.945,10807.4,14.2549,11.4386,91010.2,158.191,101.3,1.61E-31,0.635298
369991,-4.32141,-7.56457,0.458955,-32.9991,101.3,106.321,540.334,112.424,1044.34,337.439,10628.3,7822.88,59.66,0,10.3316,50.8155,10823.7,14.2457,11.4516,90991.2,158.191,101.3,1.57E-31,0.650435
370001,-5.90534,-7.38344,0.47012,-32.9991,101.3,106.388,540.319,112.484,1044.52,343.19,10647.7,7842.72,59.66,0,10.3167,50.6765,10814.5,14.2443,11.4739,90582.8,158.191,101.3,1.53E-31,0.668858
370011,-7.08628,-7.26764,0.408035,-32.9991,101.3,106.505,539.876,112.596,1044.61,349.353,10668.2,7862.91,59.66,0,10.2977,50.5443,10783,14.2504,11.511,89810.7,158.191,101.3,1.49E-31,0.690161
370021,-7.91335,-7.20535,0.297437,-32.9991,101.3,106.66,539.044,112.743,1044.62,355.956,10686.2,7879.91,59.66,0,10.2754,50.4325,10732.2,14.2628,11.5617,88893,158.191,101.3,1.45E-31,0.712679
370031,-8.47215,-7.17685,0.156241,-32.9991,101.3,106.832,537.972,112.903,1044.58,362.966,10699.6,7891.81,59.66,0,10.2513,50.3472,10670.5,14.2793,11.6258,87908.5,158.191,101.3,1.41E-31,0.73528
370041,-8.84526,-7.17636,0.00170495,-32.9991,101.3,107.013,536.735,113.064,1044.48,370.583,10706.4,7896.93,59.66,0,10.2266,50.2929,10602.3,14.2984,11.7031,86911.9,158.191,101.3,1.37E-31,0.757225
370051,-9.10151,-7.19397,-0.15173,-32.9991,101.3,107.193,535.43,113.215,1044.34,378.735,10706,7894.62,59.66,0,10.2022,50.27,10532.4,14.3184,11.7928,86009.5,158.191,101.3,1.34E-31,0.78018
370061,-9.28513,-7.22855,-0.307654,-32.9991,101.3,107.372,534.114,113.354,1044.2,387.226,10698.5,7885.25,59.66,0,10.1792,50.2759,10462.7,14.3379,11.8942,85181.6,158.191,101.3,1.31E-31,0.802818
370071,-9.42028,-7.27175,-0.453302,-32.9991,101.3,107.545,532.782,113.486,1043.97,396.833,10683.6,7868.58,59.66,0,10.158,50.3078,10394.6,14.357,12.0068,84347.3,158.191,101.3,1.28E-31,0.825916
370081,-9.52314,-7.32492,-0.585638,-32.9991,101.3,107.714,531.51,113.605,1043.77,406.432,10662.4,7845.9,59.66,0,10.1393,50.3613,10329.4,14.3742,12.1305,83659.5,158.191,101.3,1.25E-31,0.849208
370091,-9.60297,-7.38594,-0.713592,-32.9991,101.3,107.871,530.264,113.71,1043.51,417.152,10635.2,7817.46,59.66,0,10.1231,50.4318,10267,14.3904,12.2647,83036.7,158.191,101.3,1.22E-31,0.871953
370101,-9.66429,-7.45124,-0.822729,-32.9991,101.3,108.01,529.149,113.799,1043.28,427.866,10603.1,7784.52,59.66,0,10.1098,50.5144,10211.9,14.405,12.4093,82390.7,158.191,101.3,1.20E-31,0.89521
370111,-9.71112,-7.52117,-0.916343,-32.9991,101.3,108.146,528.09,113.884,1043.02,439.248,10566.6,7747.56,59.66,0,10.0996,50.6057,10160.3,14.4189,12.564,81823.8,158.191,101.3,1.17E-31,0.918524
370121,-9.74648,-7.59708,-1.00137,-32.9991,101.3,108.272,527.141,113.956,1042.83,450.498,10527.4,7708.14,59.66,0,10.0923,50.7006,10113.3,14.4317,12.7284,81299,158.191,101.3,1.15E-31,0.941149
370131,-9.77079,-7.67182,-1.06572,-32.9991,101.3,108.384,526.275,114.016,1042.58,462.699,10485.1,7666.22,59.66,0,10.088,50.796,10072.2,14.4452,12.9021,80668,158.191,101.3,1.13E-31,0.964838
370141,-9.78638,-7.74985,-1.12195,-32.9991,101.3,108.491,525.504,114.074,1042.39,474.552,10441.5,7623.39,59.66,0,10.0866,50.8885,10035,14.4589,13.0845,80105.2,158.191,101.3,1.11E-31,0.987972
370151,-9.79463,-7.82783,-1.1694,-32.9991,101.3,108.585,524.812,114.121,1042.2,486.865,10396.9,7579.95,59.66,0,10.0879,50.9756,10001.7,14.4738,13.2753,79497.8,158.191,101.3,1.09E-31,1.01024
370161,-9.7957,-7.90389,-1.20837,-32.9991,101.3,108.672,524.191,114.16,1042.01,499.565,10351.8,7536.54,59.66,0,10.0915,51.0552,9972.38,14.4905,13.474,78946.6,158.191,101.3,1.07E-31,1.03298
370171,-9.79107,-7.98225,-1.34349,-32.9991,101.3,108.838,523.279,114.246,1041.76,512.905,10306.9,7493.69,59.66,0,10.0974,51.1307,9924.22,14.5099,13.6797,78300.6,158.191,101.3,1.05E-31,1.05537
370181,-9.7817,-8.06217,-1.56811,-32.9991,101.3,109.085,521.915,114.425,1041.5,526.415,10260.1,7449.35,59.66,0,10.105,51.213,9849.47,14.5313,13.8917,77702,158.191,101.3,1.03E-31,1.07699
370191,-9.76812,-8.14809,-1.8129,-32.9991,101.3,109.357,520.28,114.629,1041.22,540.637,10207.6,7399.67,59.66,0,10.1138,51.3137,9761.03,14.5537,14.1099,77151.4,158.191,101.3,1.02E-31,1.09939
370201,-9.75148,-8.2457,-2.06091,-32.9991,101.3,109.648,518.463,114.836,1040.88,556.177,10146.6,7341.74,59.66,0,10.1239,51.441,9665.14,14.5757,14.3341,76587.4,158.191,101.3,1.00E-31,1.12208
370211,-9.73224,-8.35394,-2.30697,-32.9991,101.3,109.942,516.56,115.037,1040.44,572.925,10076.5,7275.31,59.66,0,10.1357,51.5921,9567.47,14.597,14.5678,76035.4,158.191,101.3,9.87E-32,1.14435
370221,-9.71114,-8.47115,-2.54879,-32.9991,101.3,110.252,514.603,115.236,1040.02,590.267,9998.37,7201.09,59.66,0,10.1491,51.7643,9466.95,14.6159,14.8073,75527.6,158.191,101.3,9.73E-32,1.16567
370231,-9.68829,-8.59551,-2.78482,-32.9991,101.3,110.567,512.629,115.43,1039.57,608.558,9912.54,7119.69,59.66,0,10.1646,51.9523,9366.44,14.6323,15.053,75046,158.191,101.3,9.59E-32,1.18686
370241,-9.66436,-8.72737,-3.01586,-32.9991,101.3,110.892,510.645,115.624,1039.13,627.512,9819.63,7031.71,59.66,0,10.1823,52.1527,9265.36,14.646,15.3048,74571.2,158.191,101.3,9.46E-32,1.20725
370251,-9.63941,-8.86488,-3.23896,-32.9991,101.3,111.226,508.643,115.812,1038.63,647.938,9720.05,6937.69,59.66,0,10.2023,52.3615,9164.14,14.6574,15.5624,74132.6,158.191,101.3,9.34E-32,1.2269
370261,-9.61378,-9.00749,-3.45479,-32.9991,101.3,111.566,506.648,115.997,1038.16,668.903,9615.08,6838.79,59.66,0,10.2245,52.5742,9062.54,14.6663,15.8251,73715.4,158.191,101.3,9.22E-32,1.24608
370271,-9.58777,-9.15374,-3.66128,-32.9991,101.3,111.905,504.673,116.177,1037.64,690.985,9504.97,6735.41,59.66,0,10.2491,52.7875,8963.02,14.6738,16.0929,73287.4,158.191,101.3,9.10E-32,1.2648
370281,-9.56164,-9.30444,-3.86161,-32.9991,101.3,112.247,502.711,116.359,1037.09,714.095,9390.51,6628.33,59.66,0,10.276,52.9984,8864.65,14.6801,16.364,72877,158.191,101.3,8.99E-32,1.28231
370291,-9.53514,-9.45646,-4.05019,-32.9991,101.3,112.59,500.812,116.531,1036.59,737.845,9272.99,6518.71,59.66,0,10.3049,53.2037,8768.86,14.685,16.6385,72497.5,158.191,101.3,8.88E-32,1.29962
370301,-9.50879,-9.61095,-4.23188,-32.9991,101.3,112.941,498.904,116.707,1036.04,762.817,9152.57,6406.85,59.66,0,10.3357,53.4014,8673.04,14.6896,16.9107,72102.2,158.191,101.3,8.78E-32,1.31657
370311,-9.48268,-9.76643,-4.40698,-32.9991,101.3,113.29,497.067,116.879,1035.55,787.959,9030.68,6294.08,59.66,0,10.3686,53.5883,8580.15,14.6941,17.1907,71709,158.191,101.3,8.68E-32,1.33276
370321,-9.45691,-9.92217,-4.57562,-32.9991,101.3,113.652,495.218,117.055,1035.05,814.251,8907.32,6180.42,59.66,0,10.4031,53.7644,8485.86,14.6993,17.4694,71330.9,158.191,101.3,8.59E-32,1.3479
370331,-9.4314,-10.0773,-4.73741,-32.9991,101.3,114.007,493.425,117.214,1034.56,841.279,8783.47,6066.75,59.66,0,10.4385,53.9272,8394.45,14.7054,17.7479,70961.2,158.191,101.3,8.50E-32,1.36251
370341,-9.4064,-10.2324,-4.89487,-32.9991,101.3,114.362,491.649,117.38,1034.02,869.484,8659.18,5953.24,59.66,0,10.4753,54.0763,8304.73,14.7131,18.0241,70590.3,158.191,101.3,8.41E-32,1.37636
370351,-9.38191,-10.3864,-5.04678,-32.9991,101.3,114.731,489.914,117.551,1033.57,897.507,8535.41,5840.63,59.66,0,10.513,54.2122,8215.36,14.722,18.2987,70236.1,158.191,101.3,8.33E-32,1.38951
370361,-9.35793,-10.5391,-5.19359,-32.9991,101.3,115.102,488.193,117.713,1033.1,926.799,8412.42,5729.31,59.66,0,10.5514,54.333,8126.51,14.7332,18.5747,69898.7,158.191,101.3,8.24E-32,1.40208
370371,-9.3346,-10.6903,-5.33631,-32.9991,101.3,115.476,486.503,117.881,1032.65,956.619,8290.22,5619.23,59.66,0,10.5904,54.4402,8039.37,14.747,18.8458,69560.5,158.191,101.3,8.17E-32,1.41424
370381,-9.3121,-10.8398,-5.47524,-32.9991,101.3,115.855,484.837,118.043,1032.22,986.973,8169.31,5510.83,59.66,0,10.6296,54.5337,7952.39,14.7633,19.1128,69236.1,158.191,101.3,8.09E-32,1.42573
370391,-9.29037,-10.9873,-5.61073,-32.9991,101.3,116.236,483.167,118.206,1031.74,1018.32,8049.63,5404.08,59.66,0,10.6689,54.6137,7865.66,14.7828,19.3753,68923.1,158.191,101.3,8.02E-32,1.43657
370401,-9.26942,-11.1325,-5.74276,-32.9991,101.3,116.619,481.558,118.369,1031.33,1049.57,7931.79,5299.41,59.66,0,10.7079,54.681,7781.18,14.8048,19.6325,68620.5,158.191,101.3,7.95E-32,1.44683
370411,-9.2493,-11.2758,-5.87018,-32.9991,101.3,117.006,479.97,118.529,1030.92,1081.77,7815.53,5196.63,59.66,0,10.7466,54.7366,7697.51,14.8296,19.884,68329.9,158.191,101.3,7.88E-32,1.45656
370421,-9.23003,-11.4167,-5.9936,-32.9991,101.3,117.396,478.401,118.69,1030.51,1114.5,7701.17,5096.02,59.66,0,10.7847,54.7802,7614.61,14.8576,20.1311,68040,158.191,101.3,7.81E-32,1.46577
370431,-9.21163,-11.5552,-6.11322,-32.9991,101.3,117.793,476.86,118.852,1030.13,1147.53,7588.91,4997.71,59.66,0,10.8221,54.8129,7532.4,14.8885,20.37,67761.3,158.191,101.3,7.75E-32,1.47429
370441,-9.19794,-11.6912,-6.22871,-32.9991,101.3,118.191,475.339,119.011,1029.74,1181.3,7478.73,4901.71,59.66,0,10.8588,54.8349,7451.09,14.9219,20.5993,67490.4,158.191,101.3,7.69E-32,1.48221
370451,-9.17935,-11.8244,-6.34008,-32.9991,101.3,118.588,473.877,119.168,1029.42,1214.85,7371.06,4808.3,59.66,0,10.8944,54.847,7371.66,14.9576,20.822,67226.5,158.191,101.3,7.63E-32,1.48959
370461,-9.16385,-11.9548,-6.44747,-32.9991,101.3,118.982,472.431,119.319,1029.07,1249.54,7265.4,4717.1,59.66,0,10.9289,54.8499,7293.61,14.996,21.0368,66968.9,158.191,101.3,7.57E-32,1.4965
370471,-9.14826,-12.0826,-6.55155,-32.9991,101.3,119.384,471.014,119.475,1028.74,1284.14,7162.21,4628.44,59.66,0,10.9622,54.8442,7216.26,15.0365,21.2419,66716.3,158.191,101.3,7.52E-32,1.50295
370481,-9.13373,-12.2073,-6.65227,-32.9991,101.3,119.787,469.634,119.626,1028.46,1319.01,7061.65,4542.44,59.66,0,10.9941,54.8302,7139.74,15.0785,21.4359,66469.5,158.191,101.3,7.46E-32,1.50892
370491,-9.11953,-12.3302,-6.74984,-32.9991,101.3,120.187,468.284,119.778,1028.16,1354.32,6963.31,4458.77,59.66,0,11.0247,54.809,7065.33,15.1218,21.6189,66229.8,158.191,101.3,7.41E-32,1.51458
370501,-9.10665,-12.449,-6.84472,-32.9991,101.3,120.59,466.974,119.928,1027.93,1389.69,6867.54,4377.62,59.66,0,11.054,54.7812,6991.51,15.1652,21.7876,65994.1,158.191,101.3,7.36E-32,1.51975
370511,-9.09396,-12.5654,-6.93636,-32.9991,101.3,120.999,465.679,120.079,1027.69,1425.31,6774.09,4298.8,59.66,0,11.0818,54.7475,6918.15,15.2084,21.9484,65765.3,158.191,101.3,7.31E-32,1.52445
370521,-9.08201,-12.6788,-7.0253,-32.9991,101.3,121.41,464.409,120.228,1027.47,1461.21,6683.11,4222.42,59.66,0,11.1079,54.7081,6845.62,15.2516,22.0989,65542.9,158.191,101.3,7.27E-32,1.52871
370531,-9.07064,-12.7893,-7.11214,-32.9991,101.3,121.814,463.152,120.373,1027.2,1497.68,6594.13,4148.05,59.66,0,11.1323,54.6642,6774.53,15.2942,22.2368,65327.1,158.191,101.3,7.22E-32,1.53257
370541,-9.0599,-12.8971,-7.19567,-32.9991,101.3,122.225,461.945,120.519,1027.02,1533.74,6507.65,4076.04,59.66,0,11.1552,54.6163,6704.58,15.3348,22.3628,65117.1,158.191,101.3,7.18E-32,1.53605
370551,-9.04967,-13.0022,-7.27751,-32.9991,101.3,122.633,460.771,120.663,1026.87,1570.01,6423.48,4006.2,59.66,0,11.1764,54.5647,6635.51,15.3725,22.4773,64913.1,158.191,101.3,7.14E-32,1.53915
370561,-9.04037,-13.1042,-7.35658,-32.9991,101.3,123.045,459.61,120.807,1026.7,1606.55,6341.3,3938.27,59.66,0,11.1958,54.5103,6567.06,15.4073,22.5799,64716.6,158.191,101.3,7.10E-32,1.5419
370571,-9.03041,-13.2047,-7.4333,-32.9991,101.3,123.456,458.482,120.951,1026.56,1643.05,6261.14,3872.25,59.66,0,11.2137,54.4536,6500.15,15.4382,22.671,64524.2,158.191,101.3,7.06E-32,1.54436
370581,-9.02206,-13.3011,-7.50726,-32.9991,101.3,123.87,457.371,121.095,1026.44,1679.65,6182.97,3808.04,59.66,0,11.2299,54.395,6433.14,15.4644,22.7508,64335.7,158.191,101.3,7.02E-32,1.54645
370591,-9.01344,-13.3951,-7.57885,-32.9991,101.3,124.285,456.28,121.235,1026.31,1716.31,6106.66,3745.55,59.66,0,11.2445,54.3347,6367.23,15.4854,22.8193,64153.4,158.191,101.3,6.98E-32,1.5482
370601,-9.00554,-13.4876,-7.6478,-32.9991,101.3,124.7,455.232,121.375,1026.22,1752.82,6032.33,3684.89,59.66,0,11.2575,54.273,6303.19,15.5002,22.877,63976,158.191,101.3,6.95E-32,1.5496
370611,-8.99798,-13.5766,-7.71463,-32.9991,101.3,125.112,454.19,121.516,1026.11,1789.56,5959.84,3625.93,59.66,0,11.2691,54.21,6239.29,15.5086,22.9241,63802.7,158.191,101.3,6.91E-32,1.55068
370621,-8.99068,-13.6633,-7.7795,-32.9991,101.3,125.521,453.183,121.651,1026.02,1826.28,5889.2,3568.61,59.66,0,11.279,54.1462,6176.99,15.5097,22.9612,63634.1,158.191,101.3,6.88E-32,1.55142
370631,-8.98376,-13.7475,-7.84215,-32.9991,101.3,125.941,452.202,121.791,1026,1862.48,5820.43,3512.91,59.66,0,11.2876,54.0821,6114.36,15.5028,22.9884,63469.9,158.191,101.3,6.85E-32,1.55186
370641,-8.98161,-13.8294,-7.90242,-32.9991,101.3,126.356,451.246,121.926,1025.97,1898.95,5753.2,3458.59,59.66,0,11.2947,54.018,6053.31,15.4876,23.0059,63310.2,158.191,101.3,6.82E-32,1.55202
370651,-8.97219,-13.9084,-7.96037,-32.9991,101.3,126.768,450.313,122.059,1025.94,1935.37,5687.62,3405.72,59.66,0,11.3005,53.9536,5993.31,15.4637,23.014,63154.4,158.191,101.3,6.79E-32,1.55189
370661,-8.9684,-13.9854,-8.01641,-32.9991,101.3,127.181,449.394,122.192,1025.91,1971.7,5623.62,3354.27,59.66,0,11.3051,53.8892,5933.81,15.4315,23.013,63001.9,158.191,101.3,6.76E-32,1.55147
370671,-8.96112,-14.0603,-8.07085,-32.9991,101.3,127.597,448.498,122.325,1025.9,2007.85,5561.24,3304.23,59.66,0,11.3084,53.825,5875.06,15.3903,23.0053,62855,158.191,101.3,6.73E-32,1.55076
370681,-8.95566,-14.133,-8.12294,-32.9991,101.3,128.009,447.619,122.456,1025.88,2044.16,5500.19,3255.37,59.66,0,11.3107,53.7614,5817.43,15.3398,22.9871,62711.8,158.191,101.3,6.70E-32,1.5498
370691,-8.9505,-14.2033,-8.173,-32.9991,101.3,128.418,446.769,122.585,1025.87,2080.19,5440.66,3207.81,59.66,0,11.3118,53.6982,5760.95,15.2796,22.9612,62572.8,158.191,101.3,6.68E-32,1.54858
370701,-8.94456,-14.2718,-8.22162,-32.9991,101.3,128.825,445.914,122.713,1025.81,2116.46,5382.38,3161.4,59.66,0,11.312,53.6354,5705.29,15.2119,22.9388,62437.4,158.191,101.3,6.65E-32,1.54712
370711,-8.93999,-14.3381,-8.26772,-32.9991,101.3,129.234,445.113,122.841,1025.85,2151.91,5325.74,3116.33,59.66,0,11.3111,53.5733,5650.49,15.1394,22.9296,62306,158.191,101.3,6.63E-32,1.54542
370721,-8.93458,-14.4023,-8.31245,-32.9991,101.3,129.642,444.326,122.967,1025.88,2187.26,5270.44,3072.44,59.66,0,11.3092,53.5118,5596.34,15.0655,22.9266,62178.1,158.191,101.3,6.61E-32,1.54349
370731,-8.92996,-14.4644,-8.35535,-32.9991,101.3,130.049,443.557,123.091,1025.92,2222.6,5216.47,3029.68,59.66,0,11.3064,53.4509,5542.86,14.9912,22.9256,62053.7,158.191,101.3,6.58E-32,1.54135
370741,-8.92523,-14.5246,-8.39663,-32.9991,101.3,130.446,442.807,123.213,1025.94,2257.9,5163.66,2987.94,59.66,0,11.3027,53.3907,5491.16,14.917,22.9248,61932.8,158.191,101.3,6.56E-32,1.539
370751,-8.92059,-14.5826,-8.43598,-32.9991,101.3,130.848,442.084,123.334,1026,2292.79,5112.28,2947.4,59.66,0,11.2981,53.3312,5439.65,14.8432,22.9245,61815.2,158.191,101.3,6.54E-32,1.53644
370761,-8.91627,-14.6387,-8.47354,-32.9991,101.3,131.242,441.389,123.453,1026.07,2327.29,5062.15,2907.91,59.66,0,11.2926,53.2725,5389.87,14.7703,22.9165,61698.9,158.191,101.3,6.52E-32,1.5337
370771,-8.91175,-14.6935,-8.50919,-32.9991,101.3,131.631,440.725,123.57,1026.16,2361.57,5013.39,2869.56,59.66,0,11.2861,53.2143,5341.35,14.6968,22.9083,61589.1,158.191,101.3,6.50E-32,1.53077
370781,-8.90773,-14.7462,-8.54376,-32.9991,101.3,132.024,440.072,123.686,1026.25,2395.69,4965.94,2832.35,59.66,0,11.279,53.1566,5293.07,14.6224,22.8965,61480.8,158.191,101.3,6.48E-32,1.52767
370791,-8.90337,-14.797,-8.57643,-32.9991,101.3,132.402,439.427,123.797,1026.3,2429.91,4919.64,2796.13,59.66,0,11.271,53.0993,5246.25,14.5472,22.8787,61375.4,158.191,101.3,6.46E-32,1.52438
370801,-8.89949,-14.846,-8.60773,-32.9991,101.3,132.786,438.813,123.909,1026.41,2463.37,4874.85,2761.11,59.66,0,11.2621,53.0426,5199.8,14.47,22.857,61272.5,158.191,101.3,6.45E-32,1.5209
370811,-8.89539,-14.8931,-8.63803,-32.9991,101.3,133.165,438.221,124.021,1026.53,2496.61,4831.29,2727.11,59.66,0,11.2524,52.9866,5154.42,14.3903,22.8316,61173.4,158.191,101.3,6.43E-32,1.51729
370821,-8.89152,-14.9387,-8.66666,-32.9991,101.3,133.538,437.64,124.128,1026.63,2529.77,4788.87,2694.05,59.66,0,11.2419,52.9314,5110,14.3083,22.8012,61076.5,158.191,101.3,6.41E-32,1.51354
370831,-8.8878,-14.9826,-8.69336,-32.9991,101.3,133.91,437.09,124.235,1026.76,2562.4,4747.71,2661.99,59.66,0,11.2308,52.8769,5066.7,14.2225,22.7687,60982.3,158.191,101.3,6.40E-32,1.50966
370841,-8.88391,-15.025,-8.71906,-32.9991,101.3,134.274,436.555,124.34,1026.89,2594.93,4707.71,2630.91,59.66,0,11.2191,52.8231,5024.62,14.1333,22.7311,60891.1,158.191,101.3,6.38E-32,1.50566
370851,-8.88032,-15.0657,-8.74341,-32.9991,101.3,134.636,436.028,124.443,1027,2627.18,4668.88,2600.79,59.66,0,11.2068,52.7698,4983,14.0405,22.6881,60801.9,158.191,101.3,6.37E-32,1.50153
370861,-8.87671,-15.105,-8.76652,-32.9991,101.3,134.99,435.531,124.544,1027.14,2659.08,4631.37,2571.72,59.66,0,11.1938,52.7169,4942.74,13.9436,22.6431,60715.6,158.191,101.3,6.36E-32,1.49728
370871,-8.87317,-15.1427,-8.78884,-32.9991,101.3,135.342,435.049,124.644,1027.29,2690.47,4595.01,2543.6,59.66,0,11.1803,52.6647,4903.14,13.8436,22.5968,60631.5,158.191,101.3,6.34E-32,1.49293
370881,-8.86971,-15.179,-8.81,-32.9991,101.3,135.696,434.583,124.742,1027.47,2721.55,4559.84,2516.41,59.66,0,11.1662,52.6133,4863.42,13.7393,22.5455,60549.9,158.191,101.3,6.33E-32,1.48849
370891,-8.86632,-15.214,-8.83014,-32.9991,101.3,136.04,434.117,124.838,1027.6,2752.57,4525.64,2490.03,59.66,0,11.1518,52.5624,4824.93,13.6317,22.4903,60470.5,158.191,101.3,6.32E-32,1.48395
370901,-8.86179,-15.2476,-8.84928,-32.9991,101.3,136.382,433.675,124.933,1027.76,2783.12,4492.55,2464.54,59.66,0,11.1369,52.5123,4787.46,13.5205,22.4316,60393.4,158.191,101.3,6.31E-32,1.47932
370911,-8.85339,-15.2798,-8.86716,-32.9991,101.3,136.718,433.232,125.025,1027.87,2813.78,4460.3,2439.76,59.66,0,11.1218,52.4629,4750.79,13.4062,22.3696,60318.5,158.191,101.3,6.30E-32,1.47462
370921,-8.85593,-15.3108,-8.88365,-32.9991,101.3,137.048,432.833,125.116,1028.05,2843.51,4429.23,2415.88,59.66,0,11.1064,52.4144,4715.59,13.2879,22.3047,60245.8,158.191,101.3,6.28E-32,1.46984
370931,-8.85593,-15.3406,-8.89967,-32.9991,101.3,137.374,432.434,125.206,1028.2,2873.06,4399.11,2392.81,59.66,0,11.0908,52.3663,4680.71,13.1663,22.2365,60175.1,158.191,101.3,6.27E-32,1.46501
370941,-8.84682,-15.3693,-8.91488,-32.9991,101.3,137.698,432.048,125.294,1028.36,2902.38,4369.99,2370.57,59.66,0,11.0751,52.3188,4646.58,13.0415,22.1655,60106.4,158.191,101.3,6.26E-32,1.46011
370951,-8.8483,-15.3966,-8.92901,-32.9991,101.3,138.02,431.669,125.381,1028.53,2931.34,4341.77,2349.04,59.66,0,11.0592,52.2722,4612.54,12.9136,22.0919,60039.7,158.191,101.3,6.26E-32,1.45517
370961,-8.84403,-15.4226,-8.94259,-32.9991,101.3,138.329,431.318,125.464,1028.7,2959.89,4314.53,2328.27,59.66,0,11.0429,52.2261,4580.44,12.7829,22.0156,59974.9,158.191,101.3,6.25E-32,1.45018
