Time,20-3 - Temperature,17-2 - Temperature,61-3 - Temperature,53-3 - Temperature,53-3 - Pressure,69 - Temperature,69 - Pressure,81 - Temperature,81 - Pressure,5-2 - Mass Flow,108 - Mass Flow,89-2 - Mass Flow,1 - Temperature,1 - Mass Flow,LIC506 - PV,LIC502 - PV,81 - Mass Flow,86 - Temperature,71-2 - Temperature,67 - Mass Flow,34-2 - Temperature,34-2 - Pressure,34-2 - Mass Flow,LIC508 - OP
[seconds],[C],[C],[C],[C],[kPa],[C],[kPa],[C],[kPa],[kg/h],[kg/h],[kg/h],[C],[kg/h],[%],[%],[kg/h],[C],[C],[kg/h],[C],[kPa],[kg/h],[%]
369941,4.02296,-8.71943,-0.480695,-32.9991,101.3,106.621,537.745,112.76,1043.72,301.294,10643.2,7824.7,59.66,0,10.3462,51.1863,10684.9,14.3398,11.4719,85742.7,158.191,101.3,1.70E-31,0.610728
369951,3.44933,-8.66838,-0.37968,-32.9991,101.3,106.606,537.778,112.745,1043.75,309.804,10627.8,7812.58,59.66,0,10.3476,51.1617,10688.7,14.3159,11.4571,86951.5,158.191,101.3,1.69E-31,0.612529
369961,2.34116,-8.49885,-0.198646,-32.9991,101.3,106.538,538.149,112.672,1043.78,318.13,10614.7,7802.75,59.66,0,10.3482,51.1242,10712.2,14.2923,11.444,88117.4,158.191,101.3,1.67E-31,0.615909
369971,0.989043,-8.29082,-0.0231329,-32.9991,101.3,106.477,538.665,112.599,1043.91,325.436,10607.5,7798.48,59.66,0,10.3472,51.0656,10740.4,14.2703,11.4345,88904.4,158.191,101.3,1.65E-31,0.621422
369981,-0.35373,-8.10444,0.101002,-32.9991,101.3,106.444,539.112,112.554,1044.05,332.369,10607.5,7800.98,59.66,0,10.3434,50.9833,10762.1,14.252,11.4303,89137.2,158.191,101.3,1.63E-31,0.630099
369991,-1.50277,-7.96599,0.154719,-32.9991,101.3,106.465,539.288,112.559,1044.17,339.26,10613.6,7808.97,59.66,0,10.3364,50.8845,10766.8,14.239,11.4315,89016.4,158.191,101.3,1.60E-31,0.641253
370001,-2.36824,-7.87775,0.144503,-32.9991,101.3,106.526,539.166,112.613,1044.26,345.998,10623.1,7819.73,59.66,0,10.326,50.7816,10754.8,14.2315,11.4432,88600.2,158.191,101.3,1.57E-31,0.654047
370011,-2.99114,-7.83227,0.0846923,-32.9991,101.3,106.623,538.733,112.704,1044.28,353.034,10632.7,7830.19,59.66,0,10.3132,50.6857,10726.8,14.2292,11.4627,88029.9,158.191,101.3,1.55E-31,0.667702
370021,-3.41323,-7.8147,-0.00506862,-32.9991,101.3,106.742,538.117,112.814,1044.35,359.662,10640.8,7838.55,59.66,0,10.2986,50.6061,10688.7,14.23,11.4883,87384,158.191,101.3,1.52E-31,0.681918
370031,-3.70236,-7.81954,-0.109233,-32.9991,101.3,106.871,537.329,112.925,1044.34,367.002,10645.1,7842.92,59.66,0,10.2833,50.546,10643.2,14.2334,11.5244,86717.9,158.191,101.3,1.49E-31,0.696509
370041,-3.89541,-7.84036,-0.220716,-32.9991,101.3,107.002,536.46,113.038,1044.3,374.594,10644.6,7842.41,59.66,0,10.2679,50.5082,10595.2,14.2382,11.5678,86073.7,158.191,101.3,1.47E-31,0.711338
370051,-4.02758,-7.86969,-0.33742,-32.9991,101.3,107.137,535.51,113.147,1044.2,382.839,10638.8,7836.69,59.66,0,10.2531,50.4926,10544.3,14.2435,11.6184,85449.7,158.191,101.3,1.45E-31,0.726337
370061,-4.1207,-7.90967,-0.449844,-32.9991,101.3,107.269,534.554,113.25,1044.08,391.22,10628,7825.94,59.66,0,10.2394,50.4974,10494.2,14.2481,11.6759,84887.2,158.191,101.3,1.42E-31,0.74146
370071,-4.18813,-7.95484,-0.563008,-32.9991,101.3,107.4,533.585,113.344,1043.93,400.168,10612.3,7810.46,59.66,0,10.2271,50.5202,10444,14.2516,11.7399,84377.3,158.191,101.3,1.40E-31,0.756654
370081,-4.23581,-8.00511,-0.672248,-32.9991,101.3,107.53,532.619,113.441,1043.75,409.484,10591.9,7790.51,59.66,0,10.2164,50.5588,10394.9,14.2538,11.81,83904.9,158.191,101.3,1.38E-31,0.771912
370091,-4.27785,-8.06173,-0.774325,-32.9991,101.3,107.657,531.694,113.526,1043.63,418.743,10567.8,7766.87,59.66,0,10.2075,50.6106,10347,14.2539,11.8859,83496.7,158.191,101.3,1.36E-31,0.787057
370101,-4.30462,-8.12109,-0.870268,-32.9991,101.3,107.778,530.801,113.603,1043.48,428.451,10539.8,7739.71,59.66,0,10.2006,50.6723,10301.4,14.2525,11.967,83100.5,158.191,101.3,1.35E-31,0.802533
370111,-4.32795,-8.18381,-0.961046,-32.9991,101.3,107.892,529.943,113.68,1043.33,438.376,10508.6,7709.6,59.66,0,10.1959,50.7413,10258.1,14.2495,12.053,82724.9,158.191,101.3,1.33E-31,0.817697
370121,-4.34479,-8.24808,-1.04482,-32.9991,101.3,108.013,529.096,113.753,1043.18,448.781,10474.6,7676.97,59.66,0,10.1929,50.816,10215,14.2451,12.1439,82349.8,158.191,101.3,1.31E-31,0.832728
370131,-4.3568,-8.3159,-1.12015,-32.9991,101.3,108.116,528.307,113.816,1043,459.556,10437.9,7642.06,59.66,0,10.1921,50.8935,10176.1,14.2398,12.2392,81938.1,158.191,101.3,1.30E-31,0.847292
370141,-4.36509,-8.38472,-1.19039,-32.9991,101.3,108.22,527.539,113.881,1042.81,470.755,10399.2,7605.39,59.66,0,10.1932,50.9723,10138.5,14.2336,12.3386,81584.9,158.191,101.3,1.28E-31,0.861934
370151,-4.37002,-8.45404,-1.25321,-32.9991,101.3,108.325,526.827,113.943,1042.67,481.588,10359.3,7567.86,59.66,0,10.1962,51.0501,10102.8,14.2264,12.4413,81195.6,158.191,101.3,1.27E-31,0.87682
370161,-4.37207,-8.52463,-1.31061,-32.9991,101.3,108.426,526.149,113.997,1042.52,492.963,10318.4,7529.63,59.66,0,10.2011,51.1249,10069,14.2188,12.5472,80786.4,158.191,101.3,1.25E-31,0.891271
370171,-4.37174,-8.59453,-1.36492,-32.9991,101.3,108.52,525.513,114.052,1042.4,504.338,10276.9,7491.16,59.66,0,10.2074,51.196,10037.1,14.2108,12.6558,80410.7,158.191,101.3,1.24E-31,0.905399
370181,-4.36938,-8.66447,-1.41506,-32.9991,101.3,108.613,524.893,114.1,1042.25,516.146,10234.8,7452.36,59.66,0,10.2152,51.2626,10006.3,14.2032,12.7667,80016.6,158.191,101.3,1.23E-31,0.918947
370191,-4.36514,-8.73307,-1.46069,-32.9991,101.3,108.701,524.299,114.149,1042.09,528.23,10192.5,7413.68,59.66,0,10.2244,51.3238,9977.4,14.1957,12.8771,79663.1,158.191,101.3,1.22E-31,0.932706
370201,-4.35958,-8.80119,-1.50403,-32.9991,101.3,108.792,523.731,114.2,1041.96,540.164,10150.4,7375.41,59.66,0,10.2346,51.3798,9949.1,14.1884,12.992,79299.7,158.191,101.3,1.21E-31,0.94616
370211,-4.35292,-8.86799,-1.54483,-32.9991,101.3,108.875,523.194,114.245,1041.83,552.347,10108.5,7337.67,59.66,0,10.2457,51.4296,9922.58,14.1817,13.108,78979.5,158.191,101.3,1.20E-31,0.959299
370221,-4.34519,-8.93227,-1.57935,-32.9991,101.3,108.96,522.694,114.29,1041.74,564.343,10067.3,7300.8,59.66,0,10.2576,51.4733,9897.18,14.1756,13.2254,78659.5,158.191,101.3,1.19E-31,0.973099
370231,-4.33693,-8.99587,-1.6134,-32.9991,101.3,109.042,522.207,114.333,1041.65,576.668,10026.8,7264.74,59.66,0,10.2701,51.5103,9872.59,14.1703,13.3436,78360.4,158.191,101.3,1.18E-31,0.986837
370241,-4.32833,-9.05813,-1.64598,-32.9991,101.3,109.122,521.735,114.374,1041.54,589.193,9986.84,7229.55,59.66,0,10.283,51.5411,9849.06,14.1662,13.4626,78065.4,158.191,101.3,1.17E-31,0.999897
370251,-4.31943,-9.11848,-1.67602,-32.9991,101.3,109.2,521.28,114.415,1041.43,601.694,9947.7,7195.33,59.66,0,10.2962,51.566,9826.36,14.1632,13.5823,77797.5,158.191,101.3,1.16E-31,1.01249
370261,-4.31034,-9.17663,-1.7033,-32.9991,101.3,109.275,520.854,114.455,1041.37,613.991,9909.69,7162.32,59.66,0,10.3096,51.5851,9804.38,14.1611,13.7025,77562,158.191,101.3,1.15E-31,1.02511
370271,-4.30094,-9.23211,-1.72668,-32.9991,101.3,109.349,520.466,114.491,1041.33,626.318,9872.78,7130.51,59.66,0,10.323,51.5983,9784.16,14.1599,13.8234,77310.6,158.191,101.3,1.14E-31,1.03831
370281,-4.29161,-9.28665,-1.74946,-32.9991,101.3,109.421,520.071,114.527,1041.25,639.15,9836.62,7099.64,59.66,0,10.3363,51.6061,9764.19,14.1604,13.9446,77069.6,158.191,101.3,1.13E-31,1.0513
370291,-4.28232,-9.33925,-1.77015,-32.9991,101.3,109.49,519.699,114.562,1041.19,651.66,9801.6,7069.98,59.66,0,10.3494,51.6088,9745.24,14.1622,14.0657,76836.3,158.191,101.3,1.13E-31,1.06413
370301,-4.27306,-9.38987,-1.78919,-32.9991,101.3,109.555,519.357,114.595,1041.14,664.085,9767.89,7041.67,59.66,0,10.3622,51.6062,9727.65,14.1652,14.1865,76607.4,158.191,101.3,1.12E-31,1.07682
370311,-4.26387,-9.43873,-1.80638,-32.9991,101.3,109.623,519.01,114.629,1041.07,676.711,9735.16,7014.43,59.66,0,10.3745,51.5989,9710.25,14.1698,14.3067,76384.3,158.191,101.3,1.11E-31,1.08942
370321,-4.25505,-9.48562,-1.82187,-32.9991,101.3,109.686,518.696,114.661,1041.04,689.114,9703.87,6988.61,59.66,0,10.3863,51.5873,9693.89,14.1754,14.4263,76165.1,158.191,101.3,1.10E-31,1.10194
370331,-4.24776,-9.5307,-1.83647,-32.9991,101.3,109.749,518.408,114.693,1041.05,701.149,9674.12,6964.28,59.66,0,10.3975,51.5714,9678.06,14.1821,14.5448,75951.8,158.191,101.3,1.10E-31,1.11437
370341,-4.23819,-9.57392,-1.85144,-32.9991,101.3,109.812,518.117,114.723,1041.04,713.399,9645.46,6941.07,59.66,0,10.4082,51.5519,9662.32,14.1898,14.6585,75752.9,158.191,101.3,1.09E-31,1.12689
370351,-4.2296,-9.61556,-1.87694,-32.9991,101.3,109.881,517.816,114.758,1041.05,725.406,9618.04,6919.07,59.66,0,10.4181,51.5298,9645.34,14.1986,14.7757,75526.5,158.191,101.3,1.09E-31,1.13931
370361,-4.22048,-9.65673,-1.93706,-32.9991,101.3,109.987,517.385,114.819,1041.09,737.133,9591.7,6898.07,59.66,0,10.4274,51.508,9619.53,14.2083,14.8896,75339.3,158.191,101.3,1.08E-31,1.15123
370371,-4.21261,-9.69762,-2.02014,-32.9991,101.3,110.11,516.785,114.902,1041.05,749.49,9564.43,6876.19,59.66,0,10.4358,51.4914,9585.58,14.2189,15.0012,75151.1,158.191,101.3,1.08E-31,1.1629
370381,-4.20403,-9.73965,-2.10129,-32.9991,101.3,110.236,516.134,114.986,1041.02,761.783,9535.62,6852.7,59.66,0,10.4433,51.4826,9549.54,14.2293,15.1102,74979.4,158.191,101.3,1.07E-31,1.17474
370391,-4.19672,-9.78438,-2.18237,-32.9991,101.3,110.368,515.424,115.071,1040.95,774.335,9504.53,6826.91,59.66,0,10.4502,51.4834,9511.17,14.239,15.2169,74804.1,158.191,101.3,1.07E-31,1.18648
370401,-4.18913,-9.83102,-2.26237,-32.9991,101.3,110.497,514.725,115.152,1040.91,786.812,9471.63,6799.22,59.66,0,10.4564,51.4923,9473.23,14.247,15.3211,74636.5,158.191,101.3,1.06E-31,1.19791
370411,-4.18196,-9.87932,-2.33977,-32.9991,101.3,110.632,513.993,115.233,1040.85,799.586,9436.62,6769.41,59.66,0,10.4621,51.5086,9434.06,14.2534,15.4224,74475.1,158.191,101.3,1.06E-31,1.20902
370421,-4.1751,-9.92929,-2.41487,-32.9991,101.3,110.764,513.265,115.312,1040.77,812.34,9399.92,6737.93,59.66,0,10.4676,51.5304,9395.48,14.2578,15.5204,74319.8,158.191,101.3,1.05E-31,1.21981
370431,-4.16843,-9.98114,-2.48722,-32.9991,101.3,110.895,512.549,115.385,1040.69,825.451,9361.76,6705.01,59.66,0,10.4729,51.5566,9357.66,14.2599,15.6151,74169.8,158.191,101.3,1.05E-31,1.23025
370441,-4.15784,-10.0327,-2.55717,-32.9991,101.3,111.03,511.843,115.461,1040.67,838.224,9322.74,6671.18,59.66,0,10.4781,51.5858,9319.45,14.2595,15.706,74023.7,158.191,101.3,1.04E-31,1.24036
370451,-4.15573,-10.0854,-2.62502,-32.9991,101.3,111.162,511.121,115.535,1040.57,851.718,9282.35,6636.08,59.66,0,10.483,51.6172,9281.66,14.2571,15.7926,73882.4,158.191,101.3,1.04E-31,1.25014
370461,-4.14628,-10.1385,-2.69075,-32.9991,101.3,111.298,510.397,115.612,1040.47,865.013,9241.09,6600.17,59.66,0,10.4881,51.6501,9243.8,14.2525,15.8744,73744,158.191,101.3,1.04E-31,1.25957
370471,-4.14357,-10.192,-2.75398,-32.9991,101.3,111.433,509.698,115.683,1040.41,878.289,9199.47,6563.89,59.66,0,10.4933,51.6834,9206.44,14.245,15.9517,73610.7,158.191,101.3,1.03E-31,1.26864
370481,-4.13539,-10.2455,-2.81618,-32.9991,101.3,111.564,509.012,115.752,1040.34,891.821,9157.39,6527.21,59.66,0,10.4984,51.7161,9170.18,14.2353,16.0238,73479.8,158.191,101.3,1.03E-31,1.27735
370491,-4.1322,-10.2993,-2.8765,-32.9991,101.3,111.703,508.311,115.827,1040.25,905.474,9114.98,6490.26,59.66,0,10.5035,51.7483,9133.12,14.2231,16.0906,73354.3,158.191,101.3,1.03E-31,1.28573
370501,-4.12511,-10.3527,-2.93563,-32.9991,101.3,111.838,507.628,115.9,1040.18,919.122,9072.36,6453.13,59.66,0,10.5087,51.7795,9097.08,14.2086,16.1519,73231.9,158.191,101.3,1.02E-31,1.29375
370511,-4.12153,-10.406,-2.99239,-32.9991,101.3,111.975,506.937,115.969,1040.09,933.087,9029.54,6415.88,59.66,0,10.5139,51.8094,9060.63,14.1916,16.207,73114.6,158.191,101.3,1.02E-31,1.30143
370521,-4.11535,-10.4589,-3.0488,-32.9991,101.3,112.11,506.26,116.04,1040.01,947.001,8987,6378.94,59.66,0,10.5192,51.8369,9024.64,14.1718,16.2566,73000.3,158.191,101.3,1.02E-31,1.30879
370531,-4.11158,-10.5115,-3.10402,-32.9991,101.3,112.248,505.585,116.111,1039.95,960.913,8944.63,6342.22,59.66,0,10.5247,51.8625,8988.57,14.1498,16.302,72890.4,158.191,101.3,1.02E-31,1.31578
370541,-4.10593,-10.5635,-3.15725,-32.9991,101.3,112.385,504.919,116.182,1039.87,975.043,8902.36,6305.64,59.66,0,10.53,51.8863,8953.15,14.1254,16.3408,72785.5,158.191,101.3,1.01E-31,1.32246
370551,-4.10244,-10.6153,-3.21045,-32.9991,101.3,112.523,504.263,116.25,1039.81,989.133,8860.36,6269.37,59.66,0,10.5354,51.9079,8918.14,14.0985,16.3737,72684.6,158.191,101.3,1.01E-31,1.32881
370561,-4.09704,-10.6664,-3.26213,-32.9991,101.3,112.665,503.591,116.323,1039.73,1003.43,8818.62,6233.41,59.66,0,10.5407,51.9274,8882.3,14.0694,16.4026,72584.8,158.191,101.3,1.01E-31,1.33486
370571,-4.09372,-10.7171,-3.31388,-32.9991,101.3,112.805,502.923,116.392,1039.65,1018.01,8777.12,6197.74,59.66,0,10.546,51.9448,8846.74,14.0379,16.4255,72492.4,158.191,101.3,1.01E-31,1.34053
370581,-4.08854,-10.767,-3.36433,-32.9991,101.3,112.943,502.269,116.461,1039.58,1032.36,8736.06,6162.53,59.66,0,10.5513,51.9601,8811.84,14.0038,16.441,72401.4,158.191,101.3,1.00E-31,1.34578
370591,-4.08532,-10.8164,-3.41393,-32.9991,101.3,113.086,501.621,116.53,1039.53,1046.85,8695.46,6127.79,59.66,0,10.5565,51.9733,8776.87,13.9671,16.4502,72314.2,158.191,101.3,1.00E-31,1.35068
370601,-4.08055,-10.865,-3.46265,-32.9991,101.3,113.225,500.986,116.599,1039.49,1061.27,8655.33,6093.53,59.66,0,10.5617,51.9845,8742.34,13.9277,16.4531,72230.4,158.191,101.3,1.00E-31,1.35523
370611,-4.07724,-10.913,-3.51006,-32.9991,101.3,113.368,500.346,116.667,1039.43,1075.93,8615.5,6059.61,59.66,0,10.5666,51.9938,8707.86,13.8859,16.4522,72149.9,158.191,101.3,9.98E-32,1.35941
370621,-4.07292,-10.9602,-3.55664,-32.9991,101.3,113.513,499.695,116.738,1039.35,1090.69,8576.12,6026.17,59.66,0,10.5714,52.0011,8672.98,13.8416,16.4424,72072.4,158.191,101.3,9.97E-32,1.36324
370631,-4.06931,-11.0067,-3.60277,-32.9991,101.3,113.652,499.058,116.805,1039.27,1105.55,8537.17,5993.18,59.66,0,10.5761,52.0065,8638.98,13.7947,16.4272,71997.8,158.191,101.3,9.95E-32,1.36672
370641,-4.06573,-11.0528,-3.64797,-32.9991,101.3,113.798,498.406,116.876,1039.17,1120.6,8498.53,5960.56,59.66,0,10.5807,52.0103,8604.5,13.7456,16.4075,71926.7,158.191,101.3,9.94E-32,1.36986
370651,-4.06188,-11.098,-3.69225,-32.9991,101.3,113.942,497.784,116.944,1039.13,1135.27,8460.66,5928.66,59.66,0,10.5852,52.0125,8570.69,13.6936,16.3819,71858,158.191,101.3,9.92E-32,1.37266
370661,-4.05853,-11.1424,-3.73562,-32.9991,101.3,114.085,497.171,117.011,1039.08,1150.12,8423.24,5897.23,59.66,0,10.5896,52.013,8537.38,13.6392,16.3537,71792.4,158.191,101.3,9.91E-32,1.37511
370671,-4.05476,-11.186,-3.77811,-32.9991,101.3,114.229,496.557,117.079,1039.03,1165.05,8386.36,5866.31,59.66,0,10.5937,52.012,8503.85,13.5825,16.3187,71729.5,158.191,101.3,9.90E-32,1.37724
370681,-4.05146,-11.2289,-3.81993,-32.9991,101.3,114.373,495.95,117.145,1038.98,1179.98,8349.98,5835.92,59.66,0,10.5976,52.0095,8470.84,13.5235,16.2788,71669.5,158.191,101.3,9.88E-32,1.37903
370691,-4.04787,-11.271,-3.86097,-32.9991,101.3,114.515,495.355,117.211,1038.95,1194.89,8314.23,5806.12,59.66,0,10.6013,52.0054,8438.13,13.4622,16.2343,71612.3,158.191,101.3,9.87E-32,1.38049
370701,-4.04458,-11.3124,-3.90107,-32.9991,101.3,114.661,494.75,117.278,1038.89,1209.98,8278.9,5776.77,59.66,0,10.6048,52.0001,8405.15,13.399,16.1854,71557.8,158.191,101.3,9.86E-32,1.38164
370711,-4.04109,-11.3529,-3.9409,-32.9991,101.3,114.805,494.175,117.344,1038.9,1224.54,8244.41,5748.14,59.66,0,10.608,51.9936,8372.82,13.3334,16.1322,71506,158.191,101.3,9.86E-32,1.38246
370721,-4.042,-11.3928,-3.9795,-32.9991,101.3,114.949,493.59,117.409,1038.86,1239.63,8210.11,5719.77,59.66,0,10.611,51.9862,8340.64,13.2661,16.075,71456.7,158.191,101.3,9.85E-32,1.38298
370731,-4.03804,-11.4318,-4.0172,-32.9991,101.3,115.092,493.015,117.474,1038.83,1254.54,8176.43,5691.97,59.66,0,10.6138,51.9776,8308.81,13.1969,16.014,71409.9,158.191,101.3,9.84E-32,1.38318
370741,-4.03309,-11.4701,-4.05428,-32.9991,101.3,115.236,492.442,117.539,1038.79,1269.56,8143.21,5664.64,59.66,0,10.6162,51.9681,8277.28,13.1269,15.957,71365.5,158.191,101.3,9.83E-32,1.38308
370751,-4.02657,-11.5077,-4.09024,-32.9991,101.3,115.38,491.877,117.603,1038.77,1284.44,8110.54,5637.83,59.66,0,10.6186,51.9577,8245.76,13.0565,15.9098,71322.4,158.191,101.3,9.83E-32,1.38268
370761,-4.02794,-11.5446,-4.12594,-32.9991,101.3,115.524,491.319,117.667,1038.75,1299.35,8078.37,5611.5,59.66,0,10.6207,51.9464,8214.75,12.9872,15.8656,71283.9,158.191,101.3,9.82E-32,1.382
370771,-4.02408,-11.5805,-4.15971,-32.9991,101.3,115.667,490.777,117.73,1038.74,1314.18,8046.66,5585.61,59.66,0,10.6225,51.9344,8184.38,12.9194,15.8293,71245.9,158.191,101.3,9.82E-32,1.38099
370781,-4.01925,-11.6157,-4.19303,-32.9991,101.3,115.807,490.218,117.792,1038.67,1329.39,8015.25,5560.05,59.66,0,10.6239,51.9214,8154.11,12.8534,15.7945,71210.3,158.191,101.3,9.81E-32,1.37972
370791,-4.01516,-11.6501,-4.22555,-32.9991,101.3,115.946,489.7,117.853,1038.68,1343.95,7984.8,5535.3,59.66,0,10.6251,51.9076,8124.6,12.7875,15.7566,71176.7,158.191,101.3,9.81E-32,1.37819
370801,-4.01623,-11.6837,-4.25711,-32.9991,101.3,116.088,489.179,117.913,1038.68,1358.8,7954.79,5510.97,59.66,0,10.6259,51.893,8095.08,12.7229,15.7205,71145.1,158.191,101.3,9.81E-32,1.37639
370811,-4.01229,-11.7166,-4.28749,-32.9991,101.3,116.23,488.663,117.975,1038.68,1373.41,7925.28,5487.11,59.66,0,10.6265,51.8779,8065.73,12.6595,15.6845,71115.4,158.191,101.3,9.80E-32,1.37433
370821,-4.00674,-11.7486,-4.3166,-32.9991,101.3,116.366,488.171,118.032,1038.7,1388.02,7896.42,5463.84,59.66,0,10.6267,51.8617,8037.61,12.5965,15.6492,71087.5,158.191,101.3,9.80E-32,1.37202
370831,-4.00312,-11.7799,-4.34484,-32.9991,101.3,116.503,487.682,118.089,1038.7,1402.71,7868.1,5441.09,59.66,0,10.6267,51.8447,8009.85,12.5343,15.6137,71061.6,158.191,101.3,9.80E-32,1.36946
370841,-4.00412,-11.8101,-4.37276,-32.9991,101.3,116.639,487.205,118.148,1038.72,1417.1,7840.53,5418.98,59.66,0,10.6262,51.8268,7982.32,12.4723,15.5744,71037.3,158.191,101.3,9.80E-32,1.36667
370851,-4.0007,-11.8398,-4.39905,-32.9991,101.3,116.771,486.738,118.203,1038.72,1431.54,7813.46,5397.35,59.66,0,10.6254,51.8082,7955.79,12.4112,15.5363,71014.9,158.191,101.3,9.80E-32,1.36364
370861,-3.99724,-11.8686,-4.42513,-32.9991,101.3,116.907,486.26,118.261,1038.72,1445.99,7786.95,5376.24,59.66,0,10.6243,51.789,7928.57,12.35,15.497,70994.4,158.191,101.3,9.80E-32,1.36039
370871,-3.99083,-11.8963,-4.45033,-32.9991,101.3,117.037,485.815,118.314,1038.75,1460.24,7761.26,5355.83,59.66,0,10.6229,51.769,7902.59,12.2888,15.4563,70974.9,158.191,101.3,9.80E-32,1.35692
370881,-3.99217,-11.9235,-4.47429,-32.9991,101.3,117.169,485.377,118.369,1038.79,1474.19,7736.13,5335.91,59.66,0,10.6212,51.7487,7876.74,12.2279,15.4146,70957.5,158.191,101.3,9.80E-32,1.35324
370891,-3.98836,-11.9499,-4.49793,-32.9991,101.3,117.299,484.939,118.423,1038.81,1488.33,7711.53,5316.47,59.66,0,10.6191,51.7276,7851.4,12.1678,15.3729,70941.8,158.191,101.3,9.81E-32,1.34936
370901,-3.98488,-11.9754,-4.52053,-32.9991,101.3,117.423,484.528,118.474,1038.87,1502.08,7687.64,5297.62,59.66,0,10.6167,51.7062,7826.93,12.107,15.3289,70927.3,158.191,101.3,9.81E-32,1.34528
370911,-3.97975,-12.0001,-4.54228,-32.9991,101.3,117.547,484.108,118.524,1038.87,1516.19,7664.13,5279.15,59.66,0,10.614,51.6843,7802.77,12.0469,15.2855,70914.5,158.191,101.3,9.81E-32,1.34102
370921,-3.98083,-12.0241,-4.56335,-32.9991,101.3,117.673,483.702,118.576,1038.9,1529.92,7641.39,5261.33,59.66,0,10.611,51.6618,7778.91,11.9868,15.2402,70903.1,158.191,101.3,9.81E-32,1.33657
370931,-3.97646,-12.0472,-4.58366,-32.9991,101.3,117.797,483.3,118.627,1038.94,1543.55,7619.2,5243.97,59.66,0,10.6076,51.639,7755.15,11.9269,15.1949,70893.3,158.191,101.3,9.82E-32,1.33196
370941,-3.97189,-12.0695,-4.6028,-32.9991,101.3,117.918,482.928,118.675,1039.01,1556.8,7597.73,5227.21,59.66,0,10.6039,51.616,7732.5,11.8674,15.1474,70884.8,158.191,101.3,9.82E-32,1.32718
370951,-3.97284,-12.0912,-4.62169,-32.9991,101.3,118.04,482.537,118.725,1039.03,1570.33,7576.65,5210.83,59.66,0,10.5999,51.5925,7709.49,11.8084,15.1034,70877.7,158.191,101.3,9.83E-32,1.32225
