Time,20-3 - Temperature,17-2 - Temperature,61-3 - Temperature,53-3 - Temperature,53-3 - Pressure,69 - Temperature,69 - Pressure,81 - Temperature,81 - Pressure,5-2 - Mass Flow,108 - Mass Flow,89-2 - Mass Flow,1 - Temperature,1 - Mass Flow,LIC506 - PV,LIC502 - PV,81 - Mass Flow,86 - Temperature,71-2 - Temperature,67 - Mass Flow,34-2 - Temperature,34-2 - Pressure,34-2 - Mass Flow,LIC508 - OP
[seconds],[C],[C],[C],[C],[kPa],[C],[kPa],[C],[kPa],[kg/h],[kg/h],[kg/h],[C],[kg/h],[%],[%],[kg/h],[C],[C],[kg/h],[C],[kPa],[kg/h],[%]
369931,4.11848,-8.69745,-0.48313,-32.9991,101.3,106.582,537.946,112.739,1043.71,292.778,10658.9,7837.1,59.66,0,10.3444,51.2067,10696.1,14.3656,11.4852,85211.5,158.191,101.3,1.70E-31,0.608905
369941,4.02296,-8.71943,-0.480695,-32.9991,101.3,106.621,537.745,112.76,1043.72,301.294,10643.2,7824.7,59.66,0,10.3462,51.1863,10684.9,14.3398,11.4719,85742.7,158.191,101.3,1.70E-31,0.610728
369951,3.44933,-8.66838,-0.37968,-32.9991,101.3,106.606,537.778,112.745,1043.75,309.804,10627.8,7812.58,59.66,0,10.3476,51.1617,10688.7,14.3159,11.4571,86951.5,158.191,101.3,1.69E-31,0.612529
369961,2.34119,-8.49885,-0.198653,-32.9991,101.3,106.538,538.148,112.672,1043.78,318.13,10614.7,7802.75,59.66,0,10.3482,51.1242,10712.2,14.2923,11.444,88117.3,158.191,101.3,1.67E-31,0.615909
369971,0.98914,-8.29083,-0.02315,-32.9991,101.3,106.477,538.664,112.599,1043.91,325.435,10607.5,7798.48,59.66,0,10.3472,51.0656,10740.4,14.2703,11.4345,88904.3,158.191,101.3,1.65E-31,0.621422
369981,-0.353583,-8.10446,0.100993,-32.9991,101.3,106.444,539.113,112.553,1044.05,332.369,10607.5,7800.99,59.66,0,10.3434,50.9833,10762.1,14.252,11.4303,89137.1,158.191,101.3,1.63E-31,0.630099
369991,-1.5026,-7.96602,0.154704,-32.9991,101.3,106.465,539.288,112.559,1044.17,339.258,10613.6,7808.98,59.66,0,10.3364,50.8845,10766.8,14.239,11.4315,89016.3,158.191,101.3,1.60E-31,0.641252
370001,-2.36806,-7.87778,0.144406,-32.9991,101.3,106.525,539.168,112.613,1044.26,345.996,10623.1,7819.74,59.66,0,10.326,50.7815,10754.8,14.2315,11.4432,88600.1,158.191,101.3,1.57E-31,0.654046
370011,-2.99083,-7.8323,0.0847157,-32.9991,101.3,106.623,538.734,112.704,1044.28,353.032,10632.7,7830.2,59.66,0,10.3132,50.6857,10726.9,14.2292,11.4627,88029.9,158.191,101.3,1.55E-31,0.667701
370021,-3.41302,-7.81472,-0.00502996,-32.9991,101.3,106.742,538.118,112.814,1044.35,359.657,10640.8,7838.57,59.66,0,10.2986,50.606,10688.7,14.23,11.4883,87384,158.191,101.3,1.52E-31,0.681917
370031,-3.70167,-7.81956,-0.109218,-32.9991,101.3,106.871,537.321,112.925,1044.32,367.223,10644.9,7842.82,59.66,0,10.2833,50.5459,10643.1,14.2336,11.5244,86717.9,158.191,101.3,1.49E-31,0.696508
370041,-3.89474,-7.84038,-0.220711,-32.9991,101.3,107.002,536.457,113.038,1044.29,374.707,10644.5,7842.39,59.66,0,10.2679,50.5081,10595.2,14.2383,11.5678,86073.7,158.191,101.3,1.47E-31,0.711337
370051,-4.02695,-7.86976,-0.337332,-32.9991,101.3,107.139,535.521,113.144,1044.23,382.671,10639.1,7836.93,59.66,0,10.2531,50.4923,10544.2,14.2433,11.6185,85449.7,158.191,101.3,1.45E-31,0.726336
370061,-4.12011,-7.90953,-0.449992,-32.9991,101.3,107.269,534.565,113.247,1044.1,391.285,10628.3,7826.19,59.66,0,10.2393,50.4969,10494.3,14.2479,11.6761,84887.1,158.191,101.3,1.42E-31,0.741459
370071,-4.18803,-7.95486,-0.563123,-32.9991,101.3,107.399,533.63,113.344,1044.01,399.627,10613,7810.99,59.66,0,10.2269,50.5198,10445,14.2511,11.74,84377.3,158.191,101.3,1.40E-31,0.756653
370081,-4.23536,-8.00513,-0.672004,-32.9991,101.3,107.532,532.652,113.439,1043.85,408.916,10592.7,7791.1,59.66,0,10.2162,50.5585,10394.7,14.2532,11.8101,83905,158.191,101.3,1.38E-31,0.77191
370091,-4.27741,-8.06171,-0.774526,-32.9991,101.3,107.656,531.711,113.522,1043.69,418.345,10568.4,7767.38,59.66,0,10.2073,50.6099,10346.6,14.2536,11.8859,83497.2,158.191,101.3,1.36E-31,0.787076
370101,-4.30535,-8.12107,-0.87128,-32.9991,101.3,107.775,530.812,113.601,1043.51,428.296,10540.2,7740.08,59.66,0,10.2005,50.6715,10301.5,14.2524,11.9671,83100.5,158.191,101.3,1.35E-31,0.802577
370111,-4.3278,-8.18383,-0.961736,-32.9991,101.3,107.895,529.941,113.681,1043.37,438.123,10508.9,7709.8,59.66,0,10.1957,50.7417,10257.1,14.2495,12.0531,82724.9,158.191,101.3,1.33E-31,0.817743
370121,-4.34464,-8.24821,-1.04582,-32.9991,101.3,108.008,529.112,113.754,1043.2,448.509,10474.5,7676.9,59.66,0,10.1929,50.8167,10215.8,14.2452,12.1439,82349.7,158.191,101.3,1.31E-31,0.832776
370131,-4.35667,-8.31551,-1.11999,-32.9991,101.3,108.122,528.301,113.821,1043.02,459.327,10437.8,7641.89,59.66,0,10.192,50.8948,10175.3,14.2398,12.2393,81938.1,158.191,101.3,1.30E-31,0.847337
370141,-4.36492,-8.38514,-1.1899,-32.9991,101.3,108.225,527.543,113.882,1042.83,470.433,10399.1,7605.31,59.66,0,10.1932,50.9734,10138.1,14.2335,12.3387,81584.9,158.191,101.3,1.28E-31,0.861981
370151,-4.36986,-8.4543,-1.25301,-32.9991,101.3,108.327,526.83,113.944,1042.69,481.296,10359.2,7567.75,59.66,0,10.1962,51.0509,10102.7,14.2264,12.4414,81195.5,158.191,101.3,1.27E-31,0.876866
370161,-4.3719,-8.52441,-1.31055,-32.9991,101.3,108.425,526.157,113.997,1042.53,492.706,10318.2,7529.44,59.66,0,10.201,51.1258,10069.4,14.2189,12.5473,80786.4,158.191,101.3,1.25E-31,0.891317
370171,-4.37157,-8.59491,-1.36449,-32.9991,101.3,108.523,525.518,114.052,1042.41,504.062,10276.8,7490.98,59.66,0,10.2075,51.1968,10037.1,14.2109,12.6559,80410.8,158.191,101.3,1.24E-31,0.905445
370181,-4.36919,-8.66473,-1.41523,-32.9991,101.3,108.614,524.896,114.103,1042.26,515.874,10234.7,7452.23,59.66,0,10.2154,51.2631,10006.5,14.2032,12.7667,80016.6,158.191,101.3,1.23E-31,0.918993
370191,-4.36489,-8.73311,-1.46056,-32.9991,101.3,108.706,524.294,114.153,1042.1,527.928,10192.4,7413.53,59.66,0,10.2244,51.3245,9976.93,14.1957,12.877,79663.1,158.191,101.3,1.22E-31,0.932752
370201,-4.35932,-8.80124,-1.50363,-32.9991,101.3,108.795,523.741,114.201,1041.99,539.784,10150.4,7375.42,59.66,0,10.2346,51.3802,9949,14.1881,12.9921,79299.8,158.191,101.3,1.21E-31,0.946206
370211,-4.35267,-8.8681,-1.54416,-32.9991,101.3,108.88,523.197,114.246,1041.85,552.132,10108.5,7337.61,59.66,0,10.2458,51.43,9922.36,14.1816,13.1081,78979.6,158.191,101.3,1.20E-31,0.959345
370221,-4.34493,-8.93235,-1.57897,-32.9991,101.3,108.961,522.675,114.29,1041.69,564.646,10066.9,7300.47,59.66,0,10.2577,51.4735,9897.01,14.1759,13.2254,78659.6,158.191,101.3,1.19E-31,0.973145
370231,-4.33668,-8.99594,-1.61315,-32.9991,101.3,109.043,522.191,114.334,1041.61,576.694,10026.4,7264.47,59.66,0,10.2702,51.5106,9872.37,14.1706,13.3435,78360.5,158.191,101.3,1.18E-31,0.986882
370241,-4.32809,-9.05819,-1.64617,-32.9991,101.3,109.124,521.729,114.377,1041.54,588.885,9986.73,7229.44,59.66,0,10.283,51.5415,9848.68,14.1662,13.4625,78065.5,158.191,101.3,1.17E-31,0.999942
370251,-4.3192,-9.11854,-1.676,-32.9991,101.3,109.201,521.281,114.416,1041.44,601.488,9947.65,7195.25,59.66,0,10.2962,51.5664,9826.17,14.163,13.5823,77797.6,158.191,101.3,1.16E-31,1.01254
370261,-4.31011,-9.1767,-1.70327,-32.9991,101.3,109.276,520.85,114.455,1041.36,613.91,9909.52,7162.15,59.66,0,10.3096,51.5854,9804.27,14.161,13.7025,77562.1,158.191,101.3,1.15E-31,1.02515
370271,-4.30071,-9.23218,-1.72666,-32.9991,101.3,109.349,520.461,114.491,1041.32,626.251,9872.51,7130.28,59.66,0,10.3231,51.5987,9784.2,14.1599,13.8232,77310.7,158.191,101.3,1.14E-31,1.03835
370281,-4.29139,-9.28672,-1.74942,-32.9991,101.3,109.421,520.07,114.527,1041.25,639.007,9836.49,7099.51,59.66,0,10.3364,51.6063,9764.12,14.1602,13.9445,77069.8,158.191,101.3,1.13E-31,1.05134
370291,-4.28211,-9.33931,-1.77019,-32.9991,101.3,109.489,519.7,114.562,1041.19,651.54,9801.48,7069.86,59.66,0,10.3494,51.6088,9745.38,14.1621,14.0655,76836.4,158.191,101.3,1.13E-31,1.06417
370301,-4.27285,-9.38993,-1.78888,-32.9991,101.3,109.556,519.358,114.595,1041.14,663.957,9767.78,7041.56,59.66,0,10.3622,51.6062,9727.78,14.1651,14.1863,76607.6,158.191,101.3,1.12E-31,1.07686
370311,-4.26366,-9.43877,-1.80602,-32.9991,101.3,109.621,519.023,114.628,1041.08,676.469,9735.21,7014.47,59.66,0,10.3745,51.5987,9710.71,14.1695,14.3065,76384.5,158.191,101.3,1.11E-31,1.08946
370321,-4.25484,-9.48565,-1.82187,-32.9991,101.3,109.686,518.705,114.661,1041.05,688.875,9704.03,6988.74,59.66,0,10.3863,51.5868,9694,14.1751,14.4262,76165.3,158.191,101.3,1.10E-31,1.10198
370331,-4.24761,-9.53073,-1.83679,-32.9991,101.3,109.748,518.409,114.692,1041.04,701.041,9674.16,6964.32,59.66,0,10.3975,51.571,9678.12,14.182,14.5446,75952,158.191,101.3,1.10E-31,1.11441
370341,-4.23804,-9.57403,-1.85167,-32.9991,101.3,109.81,518.121,114.723,1041.04,713.27,9645.43,6941.06,59.66,0,10.4082,51.5517,9662.64,14.1897,14.6583,75752.6,158.191,101.3,1.09E-31,1.12693
370351,-4.22943,-9.61568,-1.87705,-32.9991,101.3,109.881,517.817,114.758,1041.05,725.279,9618.02,6919.07,59.66,0,10.4182,51.5296,9645.5,14.1985,14.7755,75526.8,158.191,101.3,1.09E-31,1.13933
370361,-4.22033,-9.65676,-1.93703,-32.9991,101.3,109.986,517.38,114.819,1041.09,737.06,9591.68,6898.07,59.66,0,10.4274,51.5077,9619.33,14.2082,14.8894,75339.5,158.191,101.3,1.08E-31,1.15125
370371,-4.21245,-9.69752,-2.02006,-32.9991,101.3,110.109,516.786,114.902,1041.05,749.373,9564.46,6876.22,59.66,0,10.4358,51.491,9585.63,14.2188,15.001,75151.3,158.191,101.3,1.08E-31,1.16292
370381,-4.20385,-9.73961,-2.10127,-32.9991,101.3,110.238,516.109,114.988,1040.98,761.939,9535.44,6852.56,59.66,0,10.4434,51.4825,9548.7,14.2294,15.11,74979.6,158.191,101.3,1.07E-31,1.17476
370391,-4.19654,-9.78441,-2.18254,-32.9991,101.3,110.366,515.427,115.07,1040.94,774.218,9504.54,6826.93,59.66,0,10.4503,51.483,9511.46,14.239,15.2167,74804.3,158.191,101.3,1.07E-31,1.1865
370401,-4.18895,-9.83109,-2.26206,-32.9991,101.3,110.497,514.719,115.153,1040.9,786.808,9471.45,6799.08,59.66,0,10.4565,51.4923,9473.22,14.247,15.3209,74636.7,158.191,101.3,1.06E-31,1.19793
370411,-4.18178,-9.87944,-2.33956,-32.9991,101.3,110.633,513.987,115.234,1040.84,799.489,9436.56,6769.4,59.66,0,10.4623,51.5084,9433.89,14.2533,15.4221,74475.3,158.191,101.3,1.06E-31,1.20904
370421,-4.1749,-9.92935,-2.41468,-32.9991,101.3,110.76,513.262,115.308,1040.74,812.589,9399.76,6737.85,59.66,0,10.4678,51.53,9395.89,14.2578,15.5203,74320.1,158.191,101.3,1.05E-31,1.21982
370431,-4.17243,-9.98102,-2.48707,-32.9991,101.3,110.894,512.555,115.387,1040.71,825.188,9361.85,6705.11,59.66,0,10.473,51.5563,9357.77,14.2597,15.6148,74170,158.191,101.3,1.05E-31,1.23027
370441,-4.16317,-10.0326,-2.55695,-32.9991,101.3,111.027,511.834,115.46,1040.62,838.477,9322.56,6671.06,59.66,0,10.4781,51.5854,9319.72,14.2596,15.7056,74024,158.191,101.3,1.04E-31,1.24038
370451,-4.15953,-10.0853,-2.62481,-32.9991,101.3,111.161,511.105,115.535,1040.51,851.875,9282.1,6635.93,59.66,0,10.4831,51.6168,9281.84,14.2573,15.7921,73882.7,158.191,101.3,1.04E-31,1.25015
370461,-4.15124,-10.1386,-2.69049,-32.9991,101.3,111.294,510.408,115.608,1040.46,864.887,9241.18,6600.29,59.66,0,10.4881,51.6493,9244.77,14.2524,15.874,73744.3,158.191,101.3,1.04E-31,1.25958
370471,-4.1471,-10.1921,-2.75392,-32.9991,101.3,111.43,509.701,115.682,1040.38,878.377,9199.56,6564.03,59.66,0,10.4933,51.6824,9207.11,14.2451,15.9513,73611,158.191,101.3,1.03E-31,1.26865
370481,-4.14011,-10.2456,-2.81627,-32.9991,101.3,111.565,509.005,115.755,1040.32,891.864,9157.49,6527.34,59.66,0,10.4983,51.7154,9170.24,14.2353,16.0234,73480.1,158.191,101.3,1.03E-31,1.27736
370491,-4.13549,-10.2992,-2.87617,-32.9991,101.3,111.702,508.311,115.827,1040.25,905.376,9115.13,6490.41,59.66,0,10.5035,51.7478,9133.1,14.2231,16.0902,73354.6,158.191,101.3,1.03E-31,1.28574
370501,-4.12946,-10.3526,-2.93547,-32.9991,101.3,111.838,507.623,115.899,1040.17,919.187,9072.47,6453.26,59.66,0,10.5087,51.779,9096.89,14.2085,16.1516,73232.2,158.191,101.3,1.02E-31,1.29376
370511,-4.12474,-10.4059,-2.99274,-32.9991,101.3,111.973,506.933,115.969,1040.07,933.12,9029.65,6416.02,59.66,0,10.5139,51.8088,9060.66,14.1916,16.2067,73114.8,158.191,101.3,1.02E-31,1.30144
370521,-4.11928,-10.4588,-3.04887,-32.9991,101.3,112.109,506.261,116.039,1040.01,946.981,8987.14,6379.09,59.66,0,10.5193,51.8365,9024.72,14.1718,16.2563,73000.6,158.191,101.3,1.02E-31,1.3088
370531,-4.11471,-10.5114,-3.10399,-32.9991,101.3,112.246,505.586,116.11,1039.93,961.087,8944.64,6342.26,59.66,0,10.5246,51.8622,8989.05,14.1499,16.3017,72890.7,158.191,101.3,1.02E-31,1.31579
370541,-4.10967,-10.5636,-3.15698,-32.9991,101.3,112.386,504.914,116.181,1039.86,975.126,8902.37,6305.68,59.66,0,10.53,51.886,8953.21,14.1255,16.3405,72785.9,158.191,101.3,1.01E-31,1.32246
370551,-4.10523,-10.6152,-3.21059,-32.9991,101.3,112.521,504.261,116.249,1039.8,989.186,8860.45,6269.45,59.66,0,10.5352,51.9076,8918.21,14.0985,16.3733,72684.9,158.191,101.3,1.01E-31,1.32882
370561,-4.10052,-10.6662,-3.26195,-32.9991,101.3,112.664,503.586,116.322,1039.72,1003.59,8818.62,6233.4,59.66,0,10.5405,51.9273,8882.33,14.0694,16.4023,72585,158.191,101.3,1.01E-31,1.33487
370571,-4.09635,-10.7169,-3.31371,-32.9991,101.3,112.804,502.92,116.393,1039.64,1017.87,8777.16,6197.77,59.66,0,10.5459,51.9448,8846.8,14.038,16.4252,72492.8,158.191,101.3,1.01E-31,1.34054
370581,-4.09183,-10.7669,-3.36421,-32.9991,101.3,112.946,502.269,116.463,1039.6,1032.12,8736.21,6162.63,59.66,0,10.5512,51.9602,8811.53,14.0037,16.4408,72401.7,158.191,101.3,1.00E-31,1.34579
370591,-4.0879,-10.8163,-3.41378,-32.9991,101.3,113.085,501.617,116.531,1039.51,1046.84,8695.37,6127.71,59.66,0,10.5564,51.9735,8777.1,13.9672,16.4497,72314.5,158.191,101.3,1.00E-31,1.35069
370601,-4.0836,-10.8649,-3.46205,-32.9991,101.3,113.228,500.968,116.6,1039.45,1061.38,8655.13,6093.36,59.66,0,10.5616,51.9847,8742.03,13.9279,16.4528,72230.7,158.191,101.3,1.00E-31,1.35523
370611,-4.07979,-10.9129,-3.5097,-32.9991,101.3,113.366,500.323,116.667,1039.37,1076.17,8615.27,6059.44,59.66,0,10.5665,51.9938,8707.62,13.8862,16.4518,72150.2,158.191,101.3,9.98E-32,1.35942
370621,-4.07575,-10.9601,-3.55696,-32.9991,101.3,113.508,499.679,116.737,1039.29,1090.96,8575.82,6025.95,59.66,0,10.5714,52.0011,8673.4,13.8419,16.4416,72072.7,158.191,101.3,9.97E-32,1.36325
370631,-4.07204,-11.0066,-3.60269,-32.9991,101.3,113.653,499.039,116.808,1039.22,1105.65,8536.84,5992.92,59.66,0,10.576,52.0069,8638.99,13.7951,16.4272,71998.2,158.191,101.3,9.95E-32,1.36673
370641,-4.06821,-11.0525,-3.64731,-32.9991,101.3,113.797,498.416,116.875,1039.19,1120.31,8498.61,5960.6,59.66,0,10.5806,52.0105,8604.75,13.7454,16.4075,71927,158.191,101.3,9.94E-32,1.36986
370651,-4.06453,-11.0977,-3.69186,-32.9991,101.3,113.94,497.779,116.944,1039.11,1135.29,8460.64,5928.63,59.66,0,10.5851,52.0124,8570.72,13.6936,16.3814,71858.4,158.191,101.3,9.92E-32,1.37266
370661,-4.06092,-11.1422,-3.73533,-32.9991,101.3,114.084,497.157,117.012,1039.04,1150.26,8423.2,5897.2,59.66,0,10.5895,52.0127,8537.2,13.6393,16.3532,71792.7,158.191,101.3,9.91E-32,1.37511
370671,-4.0573,-11.1859,-3.7779,-32.9991,101.3,114.228,496.544,117.079,1039,1165.11,8386.34,5866.33,59.66,0,10.5937,52.0116,8503.7,13.5826,16.3182,71729.9,158.191,101.3,9.90E-32,1.37724
370681,-4.05382,-11.2287,-3.81999,-32.9991,101.3,114.371,495.947,117.146,1038.97,1179.86,8350.1,5836.04,59.66,0,10.5976,52.0091,8470.82,13.5235,16.2783,71669.8,158.191,101.3,9.88E-32,1.37903
370691,-4.05029,-11.2709,-3.86092,-32.9991,101.3,114.515,495.366,117.211,1038.97,1194.54,8314.47,5806.32,59.66,0,10.6014,52.0052,8438.31,13.462,16.2339,71612.7,158.191,101.3,9.87E-32,1.38049
370701,-4.04691,-11.3122,-3.90092,-32.9991,101.3,114.658,494.768,117.276,1038.91,1209.74,8279.13,5776.96,59.66,0,10.6048,51.9999,8405.85,13.3987,16.185,71558.2,158.191,101.3,9.86E-32,1.38164
370711,-4.04345,-11.3528,-3.9403,-32.9991,101.3,114.802,494.167,117.343,1038.85,1224.79,8244.27,5748.08,59.66,0,10.6081,51.9933,8373.36,13.3336,16.1317,71506.4,158.191,101.3,9.86E-32,1.38246
370721,-4.04013,-11.3927,-3.97905,-32.9991,101.3,114.947,493.595,117.409,1038.85,1239.44,8210.26,5719.94,59.66,0,10.6111,51.9857,8341.18,13.2661,16.0745,71457.1,158.191,101.3,9.85E-32,1.38297
370731,-4.03674,-11.4317,-4.01678,-32.9991,101.3,115.092,493.012,117.474,1038.81,1254.57,8176.57,5692.15,59.66,0,10.6138,51.9771,8308.97,13.1969,16.0135,71410.3,158.191,101.3,9.84E-32,1.38318
370741,-4.03188,-11.47,-4.05395,-32.9991,101.3,115.236,492.442,117.539,1038.78,1269.49,8143.42,5664.87,59.66,0,10.6163,51.9676,8277.37,13.1269,15.9567,71365.9,158.191,101.3,9.83E-32,1.38307
370751,-4.02665,-11.5077,-4.09015,-32.9991,101.3,115.381,491.877,117.604,1038.77,1284.39,8110.74,5638.04,59.66,0,10.6186,51.9573,8245.91,13.0567,15.9086,71322.7,158.191,101.3,9.83E-32,1.38268
370761,-4.02796,-11.5445,-4.12544,-32.9991,101.3,115.525,491.323,117.667,1038.75,1299.29,8078.53,5611.66,59.66,0,10.6207,51.9462,8215.01,12.9873,15.8654,71284.3,158.191,101.3,9.82E-32,1.382
370771,-4.02308,-11.5806,-4.15929,-32.9991,101.3,115.669,490.775,117.731,1038.73,1314.13,8046.88,5585.84,59.66,0,10.6225,51.934,8184.29,12.9192,15.8282,71246.4,158.191,101.3,9.82E-32,1.38099
370781,-4.01788,-11.6156,-4.19259,-32.9991,101.3,115.809,490.229,117.793,1038.7,1329.08,8015.65,5560.42,59.66,0,10.624,51.921,8154.12,12.8528,15.7932,71210.7,158.191,101.3,9.81E-32,1.37972
370791,-4.01897,-11.65,-4.2251,-32.9991,101.3,115.947,489.704,117.852,1038.69,1343.86,7985.04,5535.56,59.66,0,10.6252,51.9072,8124.78,12.7875,15.7573,71177.1,158.191,101.3,9.81E-32,1.37818
370801,-4.01561,-11.6836,-4.25639,-32.9991,101.3,116.089,489.179,117.914,1038.67,1358.65,7954.92,5511.14,59.66,0,10.6261,51.8928,8095.22,12.7229,15.7202,71145.5,158.191,101.3,9.81E-32,1.37638
370811,-4.01115,-11.7164,-4.28695,-32.9991,101.3,116.225,488.68,117.972,1038.69,1373.24,7925.63,5487.46,59.66,0,10.6266,51.8772,8066.58,12.6597,15.685,71115.8,158.191,101.3,9.80E-32,1.37432
370821,-4.0046,-11.7484,-4.31618,-32.9991,101.3,116.364,488.175,118.031,1038.7,1387.92,7896.71,5464.14,59.66,0,10.6267,51.8612,8037.76,12.5966,15.6483,71087.9,158.191,101.3,9.80E-32,1.37201
370831,-4.00598,-11.7796,-4.34538,-32.9991,101.3,116.499,487.679,118.09,1038.68,1402.56,7868.36,5441.36,59.66,0,10.6266,51.8441,8009.98,12.5349,15.6119,71062,158.191,101.3,9.80E-32,1.36945
370841,-3.99855,-11.81,-4.37284,-32.9991,101.3,116.636,487.197,118.148,1038.69,1416.95,7840.66,5419.15,59.66,0,10.6262,51.8265,7982.4,12.4729,15.5736,71037.7,158.191,101.3,9.80E-32,1.36666
370851,-4.00011,-11.8396,-4.39974,-32.9991,101.3,116.768,486.732,118.203,1038.71,1431.45,7813.59,5397.51,59.66,0,10.6255,51.8081,7955.75,12.4115,15.5354,71015.3,158.191,101.3,9.80E-32,1.36363
370861,-3.99574,-11.8683,-4.42528,-32.9991,101.3,116.899,486.26,118.257,1038.69,1446.07,7787,5376.32,59.66,0,10.6243,51.7889,7929.11,12.3506,15.4957,70994.8,158.191,101.3,9.80E-32,1.36038
370871,-3.99007,-11.8961,-4.45036,-32.9991,101.3,117.034,485.803,118.315,1038.71,1460.19,7761.19,5355.81,59.66,0,10.6229,51.769,7902.69,12.2895,15.4542,70975.3,158.191,101.3,9.80E-32,1.35691
370881,-3.99145,-11.9233,-4.47411,-32.9991,101.3,117.168,485.368,118.37,1038.76,1474.08,7736.1,5335.91,59.66,0,10.6212,51.7489,7876.83,12.2286,15.4151,70957.9,158.191,101.3,9.80E-32,1.35323
370891,-3.98588,-11.9497,-4.4977,-32.9991,101.3,117.297,484.933,118.423,1038.79,1488.26,7711.57,5316.54,59.66,0,10.6192,51.7277,7851.39,12.1678,15.3719,70942.4,158.191,101.3,9.81E-32,1.34935
370901,-3.98705,-11.9751,-4.52033,-32.9991,101.3,117.421,484.522,118.473,1038.84,1502.15,7687.65,5297.67,59.66,0,10.6167,51.7062,7827.14,12.1071,15.3286,70927.7,158.191,101.3,9.81E-32,1.34527
370911,-3.98326,-12,-4.54211,-32.9991,101.3,117.547,484.109,118.524,1038.87,1516.03,7664.27,5279.29,59.66,0,10.614,51.6843,7803,12.0469,15.2852,70914.9,158.191,101.3,9.81E-32,1.34101
370921,-3.97923,-12.0239,-4.56314,-32.9991,101.3,117.672,483.7,118.576,1038.89,1529.86,7641.5,5261.45,59.66,0,10.6109,51.6618,7778.97,11.9868,15.2399,70903.6,158.191,101.3,9.81E-32,1.33656
370931,-3.97495,-12.0471,-4.58344,-32.9991,101.3,117.797,483.304,118.627,1038.95,1543.33,7619.38,5244.14,59.66,0,10.6076,51.6391,7755.26,11.9269,15.1946,70893.7,158.191,101.3,9.82E-32,1.33195
370941,-3.97584,-12.0694,-4.60256,-32.9991,101.3,117.918,482.927,118.675,1039.01,1556.71,7597.87,5227.35,59.66,0,10.6039,51.616,7732.5,11.8675,15.1498,70885.2,158.191,101.3,9.82E-32,1.32717
